FELH650
Integration time [ms]:   2.000
Averaging Nr. [scans]: 30
Smoothing Nr. [pixels]: 0
Data measured with spectrometer [name]: 1601059U1
Wave   ;Sample   ;Dark     ;Reference;Transmittance
[nm]   ;[counts] ;[counts] ;[counts] ;[%]

 200.09;   -7.297;    2.274;    3.810;-622.96784
 200.69;    4.584;    0.920;   25.480;14.92132
 201.30;    5.949;    2.380;   16.345;25.55427
 201.90;    1.389;   -2.748;   24.876;14.97746
 202.50;  -10.446;    1.610;   22.238;-58.44416
 203.10;    0.510;   -1.749;   15.267;13.27597
 203.71;    2.048;    0.350;   18.809; 9.19638
 204.31;    2.959;   -5.883;   18.469;36.31273
 204.91;    0.677;   -2.485;   24.497;11.71940
 205.51;   -1.225;   -5.684;   22.084;16.05939
 206.12;    2.603;   -3.652;   19.579;26.92621
 206.72;   -2.314;    1.514;   19.514;-21.26322
 207.32;    3.021;   -0.685;   16.264;21.86295
 207.92;    0.510;   -1.285;   20.797; 8.13090
 208.53;    1.520;   -2.218;   30.910;11.28364
 209.13;   -1.512;   -0.183;   28.607;-4.61858
 209.73;   11.248;    1.222;   35.521;29.23069
 210.33;   -0.092;   -1.444;   33.286; 3.89308
 210.94;   -4.568;   -1.120;   15.494;-20.75381
 211.54;    2.838;    1.654;   21.861; 5.85963
 212.14;    5.150;    1.118;   24.231;17.44394
 212.74;   -3.412;    3.748;   19.317;-45.99331
 213.34;    7.671;    0.185;   19.038;39.70991
 213.95;    1.439;   -4.354;   25.699;19.27556
 214.55;    0.220;   -0.115;   24.213; 1.37674
 215.15;   -5.128;    2.715;   23.422;-37.87772
 215.75;   -0.113;    4.146;   17.088;-32.91437
 216.35;    3.311;   -0.112;   25.605;13.30955
 216.96;   -3.191;    0.880;   15.194;-28.44395
 217.56;   -3.074;   -6.086;   22.579;10.50759
 218.16;    9.655;   -4.814;   21.516;54.95129
 218.76;    4.947;   -2.214;   32.458;20.65176
 219.36;    2.708;   -2.651;   22.497;21.30874
 219.97;   -4.212;   -0.121;   21.727;-18.72667
 220.57;  -10.696;   -2.160;    0.350;-340.07567
 221.17;    9.226;    0.523;   35.424;24.93642
 221.77;   -1.604;    0.981;   21.928;-12.34042
 222.37;    0.676;   -1.346;   29.250; 6.60824
 222.97;   -2.470;    0.947;   17.268;-20.93603
 223.58;   -3.052;    3.514;   21.052;-37.44304
 224.18;   -3.936;   -1.151;   26.711;-9.99702
 224.78;    3.875;   -4.746;   32.310;23.26366
 225.38;   -6.324;    1.617;   27.533;-30.64156
 225.98;    0.231;   -3.518;   24.884;13.20139
 226.58;    1.059;   -8.417;   16.569;37.92709
 227.19;   -0.011;    0.883;   26.513;-3.49181
 227.79;    6.234;    3.185;   21.016;17.09812
 228.39;   -0.501;    0.282;   20.104;-3.95132
 228.99;   -0.690;   -3.656;   15.831;15.22167
 229.59;    2.871;   -4.784;   15.715;37.34600
 230.19;   -3.390;   -2.118;   17.377;-6.52407
 230.79;   -0.077;   -6.615;   23.776;21.51117
 231.40;    3.072;   -8.049;   18.178;42.40419
 232.00;   -1.271;    2.917;   28.911;-16.11454
 232.60;   -4.381;   -0.453;   17.361;-22.05151
 233.20;    7.830;    0.055;   34.317;22.69313
 233.80;   -4.270;   -2.950;   26.637;-4.46138
 234.40;   -2.919;   -3.550;   19.609; 2.72401
 235.00;    0.159;   -7.717;   18.769;29.73800
 235.60;   -5.364;   -4.580;   22.105;-2.93659
 236.21;   -1.367;   -2.048;   27.176; 2.32906
 236.81;    1.473;    2.017;   19.898;-3.04679
 237.41;    1.038;   -3.148;   19.151;18.77087
 238.01;   -8.323;   -2.421;   15.327;-33.25012
 238.61;   -6.158;   -0.320;   18.008;-31.85886
 239.21;    4.261;   -4.880;   26.961;28.70800
 239.81;   -3.236;   -2.084;   16.211;-6.29675
 240.41;   -1.199;   -0.648;   23.349;-2.29743
 241.01;   -2.104;   -3.788;   14.272; 9.32562
 241.62;   -0.548;   -6.881;   25.754;19.40533
 242.22;    3.751;   -5.214;   19.134;36.82265
 242.82;   -1.093;   -2.219;   22.481; 4.55756
 243.42;   -0.137;   -0.148;   26.260; 0.04118
 244.02;    5.848;    2.452;   27.751;13.42243
 244.62;   -0.778;   -2.552;   14.723;10.26976
 245.22;    4.060;    5.921;   29.868;-7.77283
 245.82;   -1.198;    0.215;   22.706;-6.28158
 246.42;    3.488;    5.186;   26.863;-7.83694
 247.02;    3.044;   -2.878;   25.519;20.85480
 247.62;    1.431;   -2.615;   20.567;17.45159
 248.22;   -2.053;   -1.719;   19.732;-1.55741
 248.82;    0.918;   -1.347;   28.200; 7.66727
 249.43;   -0.501;    5.477;   12.978;-79.69082
 250.03;    0.523;   -0.648;   33.342; 3.44412
 250.63;   -2.511;    2.616;   22.620;-25.63024
 251.23;   -1.295;    0.987;   35.314;-6.64763
 251.83;   -3.692;   -0.486;   16.608;-18.75245
 252.43;    7.944;    3.024;   35.095;15.34218
 253.03;    6.068;   -5.544;   31.421;31.41459
 253.63;    1.578;   -0.517;   25.526; 8.04214
 254.23;    2.289;    2.421;   25.999;-0.55888
 254.83;    6.191;    1.622;   29.455;16.41699
 255.43;    4.013;   -0.984;   20.873;22.86295
 256.03;   -4.874;    0.714;   14.946;-39.26519
 256.63;    2.389;   -4.750;   19.400;29.56176
 257.23;    7.628;    0.158;   34.580;21.70304
 257.83;   -2.943;   -1.613;   28.972;-4.34985
 258.43;   -8.164;   -0.585;   29.192;-25.45116
 259.03;   -8.518;   -1.188;   14.003;-48.24903
 259.63;    6.299;   -2.712;   28.846;28.55406
 260.23;   -1.975;   -2.014;   25.185; 0.14355
 260.83;    3.422;   -3.883;   20.980;29.38141
 261.43;    0.707;    0.152;   28.614; 1.94952
 262.03;   11.298;   -7.175;   36.955;41.85865
 262.63;   -7.851;    1.280;   16.932;-58.33520
 263.23;    4.237;    0.216;   28.742;14.09579
 263.83;    9.133;   -7.243;   34.222;39.49345
 264.43;    0.878;    2.383;   27.613;-5.96473
 265.03;    2.916;   -1.715;   20.058;21.26721
 265.63;   -2.167;   -0.916;   24.366;-4.94785
 266.23;    0.724;   -6.151;   23.933;22.85557
 266.83;    1.696;   -5.948;   27.794;22.65528
 267.43;    1.945;   -4.686;   19.477;27.44528
 268.03;    0.157;   -5.613;   25.625;18.47195
 268.63;   -6.040;   -0.017;   20.408;-29.48449
 269.23;    8.001;  -10.074;   37.604;37.91066
 269.83;   -5.029;    1.019;   25.151;-25.05948
 270.43;   12.532;   -3.709;   36.062;40.83509
 271.03;    5.491;    1.053;   31.212;14.71452
 271.63;   -0.047;   -0.484;   29.957; 1.43681
 272.23;   -0.082;    0.315;   27.168;-1.47828
 272.83;    6.984;    0.181;   24.468;28.01146
 273.43;    1.822;   -3.443;   28.348;16.55939
 274.03;    1.780;   -6.949;   25.335;27.03901
 274.63;   -1.749;   -1.547;   28.600;-0.66724
 275.23;   -0.015;   -5.014;   28.387;14.96806
 275.83;    7.501;   -2.513;   25.025;36.36300
 276.43;   -6.501;    0.213;   20.447;-33.18120
 277.02;    0.518;   -6.881;   26.134;22.41090
 277.62;   -0.253;   -1.885;   21.799; 6.89310
 278.22;    5.450;    2.789;   30.264; 9.68535
 278.82;   -8.624;   -5.584;   30.870;-8.33889
 279.42;   -6.283;   -3.149;   23.338;-11.83011
 280.02;    6.053;   -0.408;   33.369;19.13032
 280.62;    4.759;    1.221;   29.348;12.57891
 281.22;    2.913;   -8.380;   28.372;30.72783
 281.82;    4.407;   -5.083;   23.624;33.05985
 282.42;    7.753;   -5.779;   33.183;34.73058
 283.02;    4.864;   -1.713;   33.723;18.55896
 283.62;    5.069;   -0.411;   34.861;15.53785
 284.22;   -2.252;   -5.755;   20.896;13.14182
 284.81;   -0.156;   -4.214;   28.029;12.58539
 285.41;    1.374;    0.815;   26.015; 2.21846
 286.01;    5.111;   -3.845;   35.205;22.93480
 286.61;    5.202;   -4.247;   27.852;29.43757
 287.21;   -0.331;   -3.516;   25.242;11.07211
 287.81;    1.151;   -4.285;   33.748;14.29198
 288.41;    4.147;   -5.480;   28.192;28.59069
 289.01;    2.644;   -6.517;   26.560;27.69678
 289.61;    9.929;   -7.678;   32.943;43.34415
 290.20;    1.089;   -1.083;   28.466; 7.35175
 290.80;    6.950;   -0.211;   41.044;17.35653
 291.40;    4.832;  -10.449;   34.827;33.75099
 292.00;    4.246;    0.246;   34.150;11.79716
 292.60;    6.424;    1.446;   24.243;21.83775
 293.20;    4.288;    4.348;   34.517;-0.20067
 293.80;    7.955;   -3.488;   33.447;30.98034
 294.40;    7.879;   -2.280;   41.185;23.37285
 294.99;    3.103;   -6.355;   29.789;26.16678
 295.59;    3.453;   -6.915;   41.094;21.59536
 296.19;    1.828;    4.044;   33.802;-7.44712
 296.79;    4.864;   -0.182;   43.667;11.50688
 297.39;   14.683;    0.085;   37.645;38.86570
 297.99;    6.326;   -5.886;   43.346;24.80523
 298.59;   11.709;   -5.785;   32.724;45.42929
 299.18;   -3.745;   -9.092;   27.682;14.53965
 299.78;    2.934;   -7.720;   33.190;26.04336
 300.38;    5.784;   -5.916;   38.084;26.58908
 300.98;    6.136;    0.410;   31.827;18.22435
 301.58;    4.261;   -5.622;   30.916;27.04884
 302.18;   -0.799;    0.914;   25.090;-7.08299
 302.77;    8.524;   -6.311;   42.901;30.14540
 303.37;   -2.938;   -4.959;   28.833; 5.97880
 303.97;    2.770;   -4.483;   35.535;18.12377
 304.57;    1.789;   -3.991;   28.998;17.52064
 305.17;   11.231;    1.220;   42.196;24.43185
 305.76;    2.917;    0.713;   31.419; 7.17592
 306.36;    4.865;   -4.452;   31.704;25.76884
 306.96;    3.225;   -0.287;   30.296;11.48437
 307.56;    2.809;   -7.920;   34.894;25.05825
 308.16;   -0.801;   -6.718;   35.157;14.13113
 308.75;    8.971;   -4.546;   45.427;27.04912
 309.35;   -9.430;   -1.360;   29.697;-25.98503
 309.95;    6.156;   -0.953;   38.630;17.95956
 310.55;   -2.271;   -2.957;   31.909; 1.96538
 311.15;   12.453;   -8.644;   41.979;41.67546
 311.74;    4.485;  -10.821;   38.265;31.18216
 312.34;   11.079;   -2.351;   37.773;33.47270
 312.94;   -3.347;   -4.655;   36.891; 3.14884
 313.54;    6.879;   -3.115;   40.596;22.86552
 314.13;    7.075;   -0.853;   33.774;22.89462
 314.73;    5.944;   -4.819;   39.583;24.23935
 315.33;   -7.565;   -2.323;   26.973;-17.89281
 315.93;    1.297;    0.214;   38.581; 2.82124
 316.53;   -1.021;   -6.158;   31.271;13.72693
 317.12;    5.771;   -0.513;   49.694;12.51632
 317.72;   -3.663;   -3.695;   35.221; 0.08149
 318.32;   -3.448;   -1.352;   38.141;-5.30612
 318.92;    0.329;   -0.490;   31.549; 2.55922
 319.51;    0.868;   -4.189;   37.187;12.22299
 320.11;   -0.666;    3.009;   33.277;-12.13859
 320.71;    2.060;   -5.889;   39.043;17.69027
 321.30;   12.767;   -2.486;   34.137;41.65043
 321.90;   -4.265;   -1.860;   33.254;-6.84918
 322.50;   -1.582;   -5.388;   38.345; 8.70167
 323.10;    6.735;   -7.687;   29.276;39.01613
 323.69;    2.308;   -6.553;   42.741;17.97608
 324.29;    9.386;   -5.951;   42.504;31.65171
 324.89;    6.701;   -9.553;   37.670;34.41887
 325.49;   -3.399;   -4.656;   37.367; 2.99054
 326.08;    6.305;   -9.953;   39.812;32.67071
 326.68;    0.954;    1.175;   43.228;-0.52450
 327.28;    1.527;   -7.593;   34.163;21.84073
 327.87;    6.157;   -1.491;   44.937;16.47217
 328.47;    5.304;   -6.557;   32.253;30.56105
 329.07;    6.994;   -5.920;   43.019;26.38690
 329.67;    6.673;    4.643;   39.882; 5.76043
 330.26;    9.326;   -2.721;   54.236;21.15099
 330.86;    8.940;   -4.195;   42.590;28.07645
 331.46;    6.131;   -0.263;   41.416;15.34173
 332.05;   10.692;    0.743;   52.207;19.33054
 332.65;   26.411;   -9.483;   66.760;47.07896
 333.25;   19.756;   -5.391;   52.984;43.07849
 333.84;   15.647;   -3.992;   73.157;25.45529
 334.44;   22.472;   -0.658;   74.266;30.87147
 335.04;   22.680;   -3.330;   73.191;33.98976
 335.63;   28.368;    1.468;   78.195;35.05985
 336.23;   28.831;   -4.532;   88.860;35.72411
 336.83;   22.608;    0.059;   87.162;25.88723
 337.42;   40.767;   -5.100;   95.513;45.58810
 338.02;   33.946;   -1.842;  103.177;34.07799
 338.62;   33.860;   -5.639;  106.082;35.35493
 339.21;   41.046;   -4.915;  104.135;42.14655
 339.81;   52.844;   -6.738;  111.247;50.49947
 340.41;   31.492;   -6.052;   99.765;35.48016
 341.00;   32.060;    1.652;  106.824;28.91317
 341.60;   37.025;   -3.445;   98.967;39.51695
 342.20;   15.181;   -6.090;   80.432;24.58500
 342.79;   17.382;    0.147;   73.698;23.43161
 343.39;   26.066;   -6.507;   84.184;35.91628
 343.98;   15.925;   -4.849;   59.035;32.51870
 344.58;   10.914;   -3.514;   65.518;20.89950
 345.18;   13.970;   -5.178;   61.740;28.61398
 345.77;   22.603;   -0.040;   68.986;32.80371
 346.37;   16.954;   -5.709;   69.515;30.12700
 346.97;   23.856;   -4.672;   86.913;31.14954
 347.56;   30.184;   -2.209;   81.732;38.58981
 348.16;   39.805;   -9.068;   86.408;51.18931
 348.75;   39.791;   -2.240;   99.993;41.11321
 349.35;   33.185;    1.524;  105.006;30.59559
 349.95;   17.721;   -4.185;   79.176;26.27870
 350.54;   15.203;   -4.852;   69.218;27.07527
 351.14;   11.567;    0.183;   63.519;17.97495
 351.73;   10.147;   -3.916;   65.248;20.33369
 352.33;   22.876;   -2.449;   73.159;33.49603
 352.93;   29.529;   -3.716;   83.023;38.32773
 353.52;   35.733;   -1.186;   86.689;42.01302
 354.12;   33.927;   -4.710;   93.570;39.31330
 354.71;   30.678;   -1.014;   79.909;39.16337
 355.31;   24.167;   -5.841;   77.644;35.94451
 355.90;   20.850;   -5.013;   55.000;43.09645
 356.50;   19.172;   -8.684;   63.108;38.80073
 357.10;   22.889;   -5.750;   61.772;42.41350
 357.69;   26.246;   -7.139;   72.980;41.66942
 358.29;   27.479;  -12.644;   64.567;51.96560
 358.88;   17.040;   -8.614;   59.100;37.88549
 359.48;   22.639;   -2.578;   61.969;39.06777
 360.07;   22.628;   -4.642;   62.786;40.44340
 360.67;   13.666;   -8.211;   60.218;31.97002
 361.26;   13.891;    2.091;   50.603;24.32434
 361.86;   10.398;   -4.549;   48.533;28.15881
 362.46;   10.759;   -6.679;   62.554;25.18692
 363.05;   13.166;    0.919;   60.782;20.45812
 363.65;   19.331;   -1.537;   77.494;26.40443
 364.24;   11.847;  -11.181;   61.404;31.72548
 364.84;   14.930;   -3.408;   65.108;26.76423
 365.43;   15.178;    1.690;   67.954;20.35384
 366.03;   32.786;   -4.177;   72.385;48.27904
 366.62;   20.317;   -9.380;   78.420;33.82411
 367.22;   27.393;   -6.410;   76.703;40.67191
 367.81;   39.983;    0.325;   84.779;46.95878
 368.41;   36.349;  -10.010;   85.263;48.65909
 369.00;   37.466;   -4.545;   72.925;54.22960
 369.60;   26.631;   -8.015;   82.413;38.31383
 370.19;   34.052;   -3.681;   83.246;43.40752
 370.79;   28.661;   -6.949;   75.710;43.07973
 371.38;   23.415;   -8.284;   77.408;36.99206
 371.98;   34.419;   -5.213;   77.709;47.79449
 372.57;   17.640;   -3.552;   69.554;28.98788
 373.17;   18.091;  -11.485;   81.892;31.67388
 373.76;   29.531;  -10.387;   77.880;45.22345
 374.36;   25.514;   -6.476;   90.870;32.86252
 374.95;   21.215;  -10.219;   80.365;34.70158
 375.55;   19.865;   -7.482;   80.899;30.94213
 376.14;   10.463;   -4.619;   82.454;17.32100
 376.74;   10.074;   -8.750;   84.330;20.22287
 377.33;   21.322;   -5.412;   91.238;27.66097
 377.93;   14.806;   -8.150;   89.044;23.61905
 378.52;   22.166;   -4.014;   87.102;28.73342
 379.11;   23.821;   -2.412;   95.932;26.67497
 379.71;   10.859;   -8.284;   92.294;19.03302
 380.30;   28.173;  -12.973;  110.969;33.19809
 380.90;    2.002;   -6.290;   90.333; 8.58144
 381.49;   15.332;   -0.714;  100.629;15.83352
 382.09;    8.229;   -2.852;  109.714; 9.84359
 382.68;   22.088;  -10.742;  117.654;25.56957
 383.28;   14.893;    0.152;  104.851;14.07908
 383.87;   15.918;   -2.545;  120.316;15.02774
 384.46;   11.219;    1.749;  116.110; 8.28040
 385.06;    9.051;   -6.009;  122.006;11.76488
 385.65;    6.669;  -10.587;  114.642;13.77988
 386.25;   20.379;   -1.072;  144.727;14.71281
 386.84;    6.621;  -11.880;  131.489;12.90474
 387.44;    3.209;  -10.216;  143.206; 8.75049
 388.03;    5.288;   -9.380;  139.322; 9.86405
 388.62;   16.531;   -7.708;  163.868;14.12771
 389.22;    7.365;   -6.785;  154.843; 8.75443
 389.81;   14.245;   -4.474;  167.984;10.85454
 390.41;   14.559;   -0.312;  168.854; 8.79068
 391.00;   11.064;   -5.212;  172.362; 9.16569
 391.59;    6.546;   -7.577;  177.234; 7.64204
 392.19;   14.440;   -9.476;  181.246;12.53947
 392.78;    1.856;   -3.981;  193.935; 2.94948
 393.38;   13.082;   -3.646;  197.873; 8.30104
 393.97;    7.410;    3.619;  192.835; 2.00341
 394.56;    7.237;   -6.379;  207.627; 6.36220
 395.16;   -3.231;   -1.788;  199.195;-0.71787
 395.75;   12.668;   -2.470;  224.543; 6.66806
 396.34;    9.876;   -4.178;  216.352; 6.37267
 396.94;    3.509;   -9.515;  221.266; 5.64334
 397.53;    3.451;   -1.416;  233.430; 2.07231
 398.13;    7.851;   -8.045;  249.029; 6.18338
 398.72;   -5.057;   -1.083;  244.492;-1.61830
 399.31;    5.202;   -1.978;  271.134; 2.62898
 399.91;    0.639;   -6.980;  273.107; 2.71996
 400.50;   10.508;   -5.441;  290.928; 5.38126
 401.09;   -0.048;   -3.281;  280.180; 1.14056
 401.69;   -1.863;  -15.045;  303.494; 4.13831
 402.28;   -2.162;   -5.011;  307.163; 0.91267
 402.87;   -8.218;   -5.115;  315.717;-0.96708
 403.47;    3.328;   -8.709;  340.019; 3.45161
 404.06;    0.095;   -6.178;  348.483; 1.76879
 404.65;   -0.408;   -5.079;  356.154; 1.29302
 405.25;    1.631;   -6.508;  378.868; 2.11217
 405.84;    5.247;  -12.745;  378.027; 4.60425
 406.43;   -2.335;   -5.147;  389.742; 0.71211
 407.03;    6.341;  -10.741;  420.962; 3.95683
 407.62;    2.999;   -9.076;  440.941; 2.68313
 408.21;   -1.121;   -5.577;  449.667; 0.97897
 408.81;   11.079;   -6.703;  480.050; 3.65319
 409.40;   11.198;   -3.508;  505.135; 2.89132
 409.99;    1.191;   -5.476;  524.403; 1.25821
 410.58;    2.134;   -4.441;  550.030; 1.18591
 411.18;   -0.577;    0.259;  563.390;-0.14842
 411.77;   -2.861;  -10.075;  582.259; 1.21802
 412.36;   -9.815;   -6.974;  599.628;-0.46845
 412.96;    1.356;  -10.441;  616.617; 1.88119
 413.55;    2.682;   -9.638;  633.156; 1.91666
 414.14;   -1.240;   -4.675;  637.159; 0.53513
 414.73;    1.991;   -9.873;  690.193; 1.69477
 415.33;    1.520;   -5.475;  680.041; 1.02032
 415.92;    6.538;   -7.837;  717.798; 1.98104
 416.51;   -5.454;   -3.775;  723.557;-0.23086
 417.11;  -10.481;   -4.574;  738.068;-0.79539
 417.70;   -4.553;   -4.142;  753.117;-0.05419
 418.29;   -3.954;   -2.877;  768.747;-0.13962
 418.88;   -6.232;   -6.137;  800.916;-0.01172
 419.48;   -6.597;   -4.471;  833.596;-0.25358
 420.07;   -9.982;   -5.081;  812.506;-0.59953
 420.66;   -7.779;   -0.138;  861.534;-0.88677
 421.25;   -2.626;   -2.874;  875.642; 0.02820
 421.85;    0.792;   -9.435;  951.459; 1.06432
 422.44;   -6.688;  -11.403;  931.916; 0.49987
 423.03;   -1.876;   -6.173;  942.506; 0.45296
 423.62;   -2.700;   -6.772;  978.447; 0.41328
 424.21;   -3.554;   -7.370; 1014.356; 0.37356
 424.81;   -6.381;   -1.039; 1021.911;-0.52222
 425.40;    1.086;   -7.203; 1107.601; 0.74353
 425.99;   -5.851;   -0.746; 1084.240;-0.47053
 426.58;   -7.942;   -8.637; 1185.516; 0.05824
 427.18;   -7.300;   -7.212; 1197.545;-0.00727
 427.77;   -7.614;   -6.105; 1220.325;-0.12307
 428.36;   -9.043;   -9.011; 1259.354;-0.00257
 428.95;    4.662;  -11.502; 1296.428; 1.23586
 429.54;   -5.260;   -3.604; 1343.611;-0.12288
 430.14;  -12.094;   -9.773; 1356.762;-0.16990
 430.73;  -10.406;   -2.673; 1373.055;-0.56211
 431.32;   -2.908;   -7.369; 1483.625; 0.29915
 431.91;  -14.556;   -3.743; 1419.288;-0.75984
 432.50;   -2.346;   -3.468; 1495.503; 0.07489
 433.10;   -1.200;   -5.033; 1504.493; 0.25395
 433.69;  -14.212;   -2.207; 1526.064;-0.78550
 434.28;  -10.135;    0.091; 1511.821;-0.67645
 434.87;   -4.039;   -4.704; 1650.232; 0.04019
 435.46;   -9.935;   -4.104; 1602.887;-0.36281
 436.05;  -13.012;   -6.771; 1674.187;-0.37124
 436.65;  -11.555;   -2.638; 1700.587;-0.52353
 437.24;   -0.345;   -7.830; 1684.636; 0.44225
 437.83;    2.125;   -6.964; 1689.418; 0.53573
 438.42;   -5.639;  -12.699; 1736.544; 0.40362
 439.01;   -5.040;  -10.805; 1716.929; 0.33367
 439.60;   -1.162;   -8.132; 1740.577; 0.39859
 440.19;  -13.957;   -8.173; 1780.584;-0.32335
 440.79;   -4.865;   -9.299; 1865.148; 0.23658
 441.38;    0.614;  -10.602; 1874.105; 0.59512
 441.97;   -3.849;   -3.235; 1857.821;-0.03299
 442.56;   -6.680;   -8.008; 1891.528; 0.06994
 443.15;  -10.278;   -6.574; 1906.497;-0.19364
 443.74;   -6.654;   -5.606; 1959.213;-0.05335
 444.33;  -10.058;   -8.639; 1970.944;-0.07166
 444.93;   -9.851;   -2.798; 1993.264;-0.35332
 445.52;   -8.981;   -9.203; 2014.747; 0.01094
 446.11;  -17.250;  -13.437; 2073.438;-0.18274
 446.70;   -3.447;   -5.065; 2124.633; 0.07597
 447.29;   -1.941;  -10.597; 2121.658; 0.40596
 447.88;  -11.608;   -6.738; 2228.969;-0.21785
 448.47;   -7.332;   -7.132; 2228.062;-0.00893
 449.06;   -6.719;   -6.402; 2310.825;-0.01365
 449.65;    1.909;   -7.158; 2352.815; 0.38419
 450.24;   -0.520;   -4.533; 2473.942; 0.16192
 450.84;   -7.137;   -1.105; 2458.258;-0.24530
 451.43;  -11.434;   -5.269; 2468.283;-0.24923
 452.02;    1.150;  -13.859; 2569.559; 0.58097
 452.61;  -10.317;   -6.035; 2548.581;-0.16762
 453.20;   -5.027;  -11.368; 2660.481; 0.23734
 453.79;   -4.765;   -5.699; 2803.209; 0.03322
 454.38;  -11.163;  -11.036; 2854.105;-0.00443
 454.97;   -0.391;   -6.727; 2927.845; 0.21593
 455.56;   -9.043;  -11.337; 2899.923; 0.07878
 456.15;    1.719;   -9.165; 3068.727; 0.35360
 456.74;  -13.250;   -4.339; 2987.849;-0.29781
 457.33;   -8.109;   -6.566; 3144.908;-0.04898
 457.92;   -9.877;  -17.132; 3138.915; 0.22986
 458.51;   -2.438;   -1.997; 3249.387;-0.01358
 459.10;   -8.454;   -2.232; 3194.569;-0.19462
 459.69;   -1.093;   -5.462; 3314.676; 0.13161
 460.28;  -20.928;   -8.037; 3323.818;-0.38690
 460.88;   -4.322;   -9.162; 3429.998; 0.14075
 461.47;  -19.532;   -6.906; 3489.453;-0.36114
 462.06;   -8.259;   -8.734; 3537.484; 0.01340
 462.65;    3.686;   -4.060; 3691.426; 0.20960
 463.24;   -7.812;   -8.599; 3734.560; 0.02102
 463.83;   -0.077;   -2.201; 3670.512; 0.05784
 464.42;   -0.311;   -3.693; 3794.855; 0.08902
 465.01;   -9.370;  -10.569; 3848.134; 0.03107
 465.60;  -13.267;   -8.936; 3958.850;-0.10916
 466.19;  -17.628;   -5.204; 4110.552;-0.30187
 466.78;   -8.142;   -7.961; 4101.741;-0.00440
 467.37;   -5.908;  -14.097; 4203.338; 0.19417
 467.96;   -5.917;   -8.632; 4296.531; 0.06305
 468.55;    2.878;  -10.922; 4331.234; 0.31781
 469.14;    0.095;   -6.061; 4434.163; 0.13866
 469.73;   -1.172;   -6.028; 4612.176; 0.10515
 470.32;    2.610;   -7.359; 4690.195; 0.21223
 470.91;   -5.445;   -9.395; 4824.932; 0.08172
 471.50;   -8.672;   -1.999; 4937.557;-0.13511
 472.09;   -4.412;   -3.164; 5088.389;-0.02450
 472.67;   -0.774;  -10.395; 5190.534; 0.18499
 473.26;   -3.384;   -6.396; 5362.154; 0.05610
 473.85;   -4.151;   -1.396; 5490.087;-0.05017
 474.44;   -1.616;   -5.928; 5707.870; 0.07546
 475.03;   -7.045;   -1.295; 5882.932;-0.09771
 475.62;  -10.980;   -2.937; 6042.660;-0.13303
 476.21;   -4.889;   -3.493; 6245.435;-0.02234
 476.80;   -5.547;   -7.363; 6365.243; 0.02850
 477.39;  -12.513;   -6.963; 6609.082;-0.08387
 477.98;   -5.752;  -13.991; 6770.293; 0.12144
 478.57;   -4.322;   -9.060; 7084.455; 0.06680
 479.16;   -1.851;   -7.460; 7168.857; 0.07816
 479.75;  -10.145;   -7.266; 7405.879;-0.03884
 480.34;   -4.123;   -5.864; 7515.562; 0.02314
 480.93;   -0.223;  -10.490; 7695.571; 0.13324
 481.52;   -6.313;   -7.596; 7916.509; 0.01619
 482.11;   -6.761;   -9.897; 8166.140; 0.03835
 482.69;   -6.086;   -1.559; 8252.410;-0.05485
 483.28;   -6.149;   -3.495; 8572.656;-0.03095
 483.87;   -1.824;   -5.225; 8755.255; 0.03883
 484.46;   -3.710;   -9.689; 8997.380; 0.06639
 485.05;   -7.449;   -6.161; 9022.556;-0.01426
 485.64;  -13.707;   -6.934; 9306.561;-0.07272
 486.23;   -7.790;   -4.297; 9450.316;-0.03694
 486.82;   -5.521;   -3.825; 9603.104;-0.01765
 487.41;  -13.156;   -2.833; 9847.113;-0.10480
 488.00;    0.340;   -4.357;10023.682; 0.04683
 488.58;   -6.976;   -4.958;10022.977;-0.02012
 489.17;   -2.273;   -4.360;10186.983; 0.02048
 489.76;   -7.353;   -3.428;10468.401;-0.03749
 490.35;    1.194;   -8.089;10755.382; 0.08625
 490.94;  -19.877;   -8.139;10773.033;-0.10887
 491.53;   -1.150;   -4.756;10883.649; 0.03312
 492.12;    0.261;  -13.661;11062.770; 0.12568
 492.70;   -7.410;   -3.194;11175.448;-0.03772
 493.29;   -2.615;   -9.226;11190.999; 0.05902
 493.88;   -6.430;   -5.826;11386.977;-0.00530
 494.47;  -10.558;  -10.430;11514.789;-0.00111
 495.06;    1.439;   -9.958;11662.433; 0.09764
 495.65;   -5.673;   -4.493;11689.463;-0.01009
 496.24;   -4.932;   -7.160;11802.854; 0.01887
 496.82;   -9.838;   -7.962;11895.550;-0.01576
 497.41;   -0.726;   -9.922;12052.998; 0.07624
 498.00;  -13.762;   -2.434;12234.735;-0.09257
 498.59;   -2.028;  -10.691;12432.080; 0.06962
 499.18;  -11.640;   -3.765;12337.938;-0.06380
 499.77;  -10.821;   -2.796;12459.938;-0.06439
 500.35;  -15.129;  -15.932;12655.391; 0.00634
 500.94;    2.985;   -6.257;12627.975; 0.07315
 501.53;   -3.468;   -8.089;12947.671; 0.03567
 502.12;   -3.548;   -9.327;12981.892; 0.04448
 502.71;  -10.841;   -7.564;13127.858;-0.02495
 503.29;   -0.934;   -8.793;13294.175; 0.05908
 503.88;   -4.390;  -12.266;13426.706; 0.05861
 504.47;   -9.038;   -8.459;13523.773;-0.00427
 505.06;   -9.029;   -5.736;13700.645;-0.02402
 505.65;   -7.134;  -11.659;13925.341; 0.03247
 506.23;   -7.225;   -8.094;14062.059; 0.00618
 506.82;   -1.900;   -7.626;14313.875; 0.03998
 507.41;   -4.426;   -5.922;14451.665; 0.01035
 508.00;    7.034;   -7.525;14392.644; 0.10110
 508.58;   -7.104;   -5.160;14811.426;-0.01312
 509.17;    3.084;  -15.392;14940.613; 0.12354
 509.76;   -0.075;   -9.359;15169.350; 0.06116
 510.35;   -5.011;   -6.355;15412.887; 0.00872
 510.93;   -6.007;   -5.624;15606.000;-0.00245
 511.52;   -2.529;  -16.593;15883.370; 0.08846
 512.11;   -0.146;  -14.792;15867.308; 0.09221
 512.70;   -1.961;   -8.825;16134.453; 0.04252
 513.28;   -3.478;  -12.396;16300.985; 0.05467
 513.87;   -3.373;   -9.822;16596.509; 0.03883
 514.46;   -1.524;  -10.456;16922.445; 0.05275
 515.05;    1.567;   -5.386;17021.903; 0.04084
 515.63;   -5.568;   -7.666;17236.346; 0.01216
 516.22;  -14.902;  -11.699;17403.180;-0.01839
 516.81;   -9.360;   -8.162;17482.523;-0.00685
 517.39;   -4.218;   -9.224;17596.266; 0.02844
 517.98;   -1.306;   -7.354;17876.925; 0.03382
 518.57;   -5.011;  -14.188;18257.254; 0.05023
 519.16;   -7.042;   -4.259;18424.617;-0.01510
 519.74;    8.519;  -10.084;18570.271; 0.10012
 520.33;    1.259;  -12.295;18718.247; 0.07236
 520.92;   -2.187;  -10.758;19045.537; 0.04498
 521.50;    0.546;  -10.156;19185.260; 0.05575
 522.09;   -6.923;   -7.726;19543.675; 0.00410
 522.68;   -3.413;   -7.327;19616.499; 0.01994
 523.26;    4.035;   -5.987;19739.276; 0.05075
 523.85;    2.352;  -14.853;19990.794; 0.08600
 524.44;   -6.717;  -10.027;20334.683; 0.01627
 525.03;   -9.418;  -13.063;20359.720; 0.01789
 525.61;   -6.035;   -9.392;20604.348; 0.01628
 526.20;   -8.358;  -15.161;20769.079; 0.03273
 526.79;    5.970;   -2.752;20791.679; 0.04194
 527.37;   -4.737;   -8.460;20917.779; 0.01779
 527.96;    2.422;  -11.719;21139.323; 0.06686
 528.54;   -3.814;  -11.125;21287.735; 0.03432
 529.13;   -0.463;  -11.088;21267.856; 0.04993
 529.72;   -8.212;  -12.128;21287.379; 0.01839
 530.30;    1.235;   -1.823;21458.240; 0.01425
 530.89;   -5.386;   -8.292;21682.264; 0.01340
 531.48;    2.797;   -9.686;21437.088; 0.05821
 532.06;    1.572;   -5.253;21545.612; 0.03167
 532.65;   -2.052;   -4.390;21869.107; 0.01069
 533.24;    5.127;   -5.322;22048.616; 0.04738
 533.82;   -0.731;  -12.690;22083.793; 0.05412
 534.41;   -0.061;  -14.689;22050.322; 0.06629
 534.99;   -7.432;   -9.094;22058.241; 0.00753
 535.58;   -3.747;   -9.522;22335.178; 0.02585
 536.17;   -8.999;   -6.089;22274.414;-0.01306
 536.75;  -11.931;   -8.497;22414.171;-0.01532
 537.34;    0.920;  -13.082;22511.500; 0.06216
 537.92;    0.770;   -6.093;22515.830; 0.03047
 538.51;    1.295;   -7.521;22733.998; 0.03877
 539.10;    1.179;   -3.624;22833.397; 0.02103
 539.68;   -1.532;   -9.089;22856.300; 0.03305
 540.27;    7.668;    1.383;23006.279; 0.02732
 540.85;    2.495;   -0.556;23062.489; 0.01323
 541.44;   -2.352;    4.814;23213.239;-0.03088
 542.03;   -4.727;    2.910;23438.696;-0.03259
 542.61;   -4.578;    1.505;23686.645;-0.02568
 543.20;   -2.623;   -4.885;23872.597; 0.00947
 543.78;   -7.904;    1.043;23977.682;-0.03731
 544.37;    7.349;    3.185;24266.471; 0.01716
 544.95;    0.245;    0.211;24496.120; 0.00014
 545.54;   -5.260;   -2.888;24387.472;-0.00973
 546.12;   -4.919;   -7.721;24842.229; 0.01128
 546.71;   -6.408;   -5.221;25094.563;-0.00473
 547.30;   -4.678;   -0.724;25521.511;-0.01549
 547.88;   -0.189;   -6.152;26013.537; 0.02292
 548.47;    1.822;   -8.988;26330.734; 0.04104
 549.05;    7.180;   -6.990;26665.480; 0.05312
 549.64;  -14.233;   -4.229;27078.772;-0.03694
 550.22;    1.337;   -6.624;27563.806; 0.02888
 550.81;   -0.569;   -8.760;27829.952; 0.02942
 551.39;   -9.736;   -2.024;28102.555;-0.02744
 551.98;   -0.250;  -10.156;28589.049; 0.03464
 552.56;   -0.072;  -10.520;28908.059; 0.03613
 553.15;    2.471;  -11.658;29120.060; 0.04850
 553.73;    2.678;  -15.650;29358.313; 0.06240
 554.32;    3.126;   -6.388;30041.869; 0.03166
 554.90;    3.059;   -6.255;30350.056; 0.03068
 555.49;   -4.361;   -5.623;30400.929; 0.00415
 556.07;    4.847;   -8.019;30686.432; 0.04192
 556.66;    4.519;   -5.355;31094.318; 0.03175
 557.24;   -4.428;   -9.059;31549.286; 0.01467
 557.83;    0.295;   -7.595;31690.396; 0.02489
 558.41;    9.492;   -6.252;31908.192; 0.04933
 559.00;   -1.996;  -12.055;32290.443; 0.03114
 559.58;    6.062;  -10.487;32826.712; 0.05040
 560.17;    2.945;   -6.519;33277.723; 0.02843
 560.75;    5.589;  -10.822;33376.674; 0.04915
 561.34;    1.373;   -7.590;33804.449; 0.02651
 561.92;   -1.859;   -9.262;34322.410; 0.02156
 562.50;   -1.865;   -5.089;34461.854; 0.00935
 563.09;    3.254;  -11.292;34558.395; 0.04208
 563.67;   -6.708;  -11.328;35564.781; 0.01299
 564.26;   -4.817;  -13.323;35727.629; 0.02380
 564.84;   -4.021;  -11.960;35679.994; 0.02224
 565.43;    4.961;  -16.549;36284.891; 0.05926
 566.01;    4.100;  -10.386;36301.517; 0.03989
 566.60;   -7.064;   -4.295;36839.081;-0.00752
 567.18;    3.686;   -8.955;37072.805; 0.03409
 567.76;    2.519;   -8.725;37460.735; 0.03001
 568.35;    0.060;  -10.324;37369.820; 0.02778
 568.93;    3.538;   -3.955;37334.183; 0.02007
 569.52;    5.941;  -12.527;37303.752; 0.04949
 570.10;    1.144;  -11.490;37780.471; 0.03343
 570.68;    5.487;  -10.256;38050.378; 0.04136
 571.27;    4.652;  -11.419;37863.161; 0.04243
 571.85;    7.397;   -7.215;38085.400; 0.03836
 572.44;   -0.777;  -10.753;38112.250; 0.02617
 573.02;   -9.809;  -12.430;38365.318; 0.00683
 573.60;    1.973;   -4.754;38460.385; 0.01749
 574.19;    5.018;   -5.521;38506.345; 0.02737
 574.77;   -2.733;   -8.188;38814.460; 0.01405
 575.36;   -5.466;  -11.896;38404.545; 0.01674
 575.94;    1.920;   -8.694;38825.712; 0.02733
 576.52;   -4.053;   -6.356;38899.747; 0.00592
 577.11;    4.471;  -12.424;39204.560; 0.04308
 577.69;    2.798;  -12.356;38941.718; 0.03890
 578.27;    8.681;   -7.219;39067.466; 0.04069
 578.86;    2.582;  -10.422;39221.489; 0.03315
 579.44;    5.884;   -0.721;39542.312; 0.01670
 580.02;   -1.745;  -12.159;39366.015; 0.02644
 580.61;    0.066;  -11.459;39679.141; 0.02904
 581.19;    3.476;  -12.454;39831.167; 0.03998
 581.77;    5.368;  -11.256;40108.220; 0.04144
 582.36;    0.265;   -8.827;40134.872; 0.02265
 582.94;    0.072;   -7.692;40449.533; 0.01919
 583.52;    6.521;   -5.518;40740.164; 0.02955
 584.11;   -0.693;   -4.091;40738.755; 0.00834
 584.69;    2.488;  -11.892;40895.382; 0.03515
 585.27;    2.774;   -4.755;41177.425; 0.01828
 585.86;    9.713;   -7.287;40926.736; 0.04153
 586.44;    5.597;   -6.786;41271.754; 0.03000
 587.02;   -2.525;   -4.327;41278.839; 0.00436
 587.61;    4.607;   -9.357;41399.435; 0.03372
 588.19;    9.250;  -10.020;41660.952; 0.04624
 588.77;   11.004;  -12.081;41607.311; 0.05547
 589.36;    1.845;   -5.591;42107.577; 0.01766
 589.94;    5.666;   -7.054;41736.767; 0.03047
 590.52;    9.268;   -3.691;42153.077; 0.03074
 591.10;    6.309;  -10.856;42462.311; 0.04042
 591.69;    7.482;   -7.824;42237.966; 0.03623
 592.27;    6.927;   -2.891;42583.840; 0.02305
 592.85;   -2.000;  -12.626;42428.561; 0.02504
 593.43;   12.974;   -7.619;42774.301; 0.04813
 594.02;    6.366;   -9.157;42600.298; 0.03643
 594.60;   10.977;   -3.824;43013.571; 0.03441
 595.18;    9.987;  -10.858;43303.942; 0.04813
 595.76;    6.534;   -7.351;43603.113; 0.03184
 596.35;    5.554;   -6.494;43721.085; 0.02755
 596.93;    9.291;   -9.189;43799.600; 0.04218
 597.51;   11.243;  -12.554;43483.567; 0.05471
 598.09;   13.116;   -9.820;44068.212; 0.05203
 598.68;   11.295;   -5.623;44049.409; 0.03840
 599.26;   14.698;  -12.754;44294.694; 0.06196
 599.84;    2.319;   -8.858;44831.582; 0.02493
 600.42;    8.072;   -7.922;44623.302; 0.03584
 601.01;    7.442;   -9.191;44768.448; 0.03715
 601.59;    7.885;   -9.159;45208.052; 0.03769
 602.17;   14.234;   -9.386;45214.270; 0.05223
 602.75;   16.473;   -7.352;45237.241; 0.05266
 603.33;   11.929;  -13.230;45536.440; 0.05523
 603.92;   11.327;   -8.792;45804.060; 0.04392
 604.50;    9.984;   -7.390;46089.522; 0.03769
 605.08;   18.175;   -2.517;46174.317; 0.04481
 605.66;    8.535;   -7.592;46780.631; 0.03447
 606.24;   12.104;  -16.388;46545.509; 0.06119
 606.83;   17.363;   -7.157;46692.815; 0.05251
 607.41;   13.748;   -9.459;47279.650; 0.04908
 607.99;   16.577;    1.810;46782.631; 0.03156
 608.57;   26.084;    7.946;47167.678; 0.03846
 609.15;   17.799;   18.503;47524.809;-0.00148
 609.73;   24.483;   16.406;47386.583; 0.01705
 610.32;   15.418;   20.638;47695.643;-0.01095
 610.90;   26.344;   10.410;47776.238; 0.03336
 611.48;   20.772;   12.013;47858.932; 0.01831
 612.06;   29.721;   -2.123;47872.218; 0.06652
 612.64;   14.714;    1.141;47564.177; 0.02854
 613.22;   21.550;    0.389;47793.877; 0.04427
 613.80;   15.942;   -8.325;47635.735; 0.05093
 614.39;   15.303;   -2.285;47316.892; 0.03717
 614.97;   15.342;   -8.953;47272.828; 0.05138
 615.55;   11.793;  -12.217;46891.102; 0.05119
 616.13;   15.304;   -8.884;46547.708; 0.05195
 616.71;   17.375;  -10.648;46143.573; 0.06072
 617.29;   14.510;   -5.049;46372.353; 0.04218
 617.87;   23.114;   -1.350;45835.642; 0.05337
 618.45;   14.416;   -8.422;45765.609; 0.04989
 619.04;   23.878;   -1.519;45879.470; 0.05535
 619.62;   12.820;  -12.663;45651.523; 0.05580
 620.20;   34.791;   -3.516;45679.709; 0.08385
 620.78;   25.789;  -10.350;45962.633; 0.07861
 621.36;   15.231;   -9.420;45569.608; 0.05408
 621.94;   29.437;   -7.927;45456.250; 0.08218
 622.52;   57.950;   -9.399;45348.024; 0.14849
 623.10;   60.544;  -10.740;46403.857; 0.15358
 623.68;   47.904;   -1.962;47171.507; 0.10571
 624.26;   21.041;   -7.965;47067.773; 0.06162
 624.84;   52.359;   -9.288;47736.203; 0.12912
 625.42;   35.117;   -7.699;47788.971; 0.08958
 626.01;   40.040;   -6.764;47837.467; 0.09783
 626.59;   39.553;  -10.313;48006.829; 0.10385
 627.17;   44.977;  -11.638;48096.614; 0.11768
 627.75;   41.728;  -11.961;48057.843; 0.11169
 628.33;   48.455;  -12.290;48338.958; 0.12563
 628.91;   65.383;   -5.494;48423.750; 0.14635
 629.49;   50.546;  -13.363;48430.625; 0.13192
 630.07;   64.614;  -10.797;48206.398; 0.15640
 630.65;   55.942;   -5.994;48389.045; 0.12798
 631.23;   63.062;   -8.328;48437.563; 0.14736
 631.81;   62.471;   -8.193;48724.270; 0.14501
 632.39;   71.925;   -8.661;48424.108; 0.16639
 632.97;   84.987;   -6.425;48906.122; 0.18689
 633.55;   81.952;   -2.189;49082.938; 0.17142
 634.13;   81.873;  -14.297;49017.660; 0.19614
 634.71;   94.916;   -8.096;48798.407; 0.21106
 635.29;  107.541;  -15.426;49142.499; 0.25015
 635.87;  110.188;   -9.333;49096.046; 0.24340
 636.45;  121.255;   -8.895;49393.512; 0.26345
 637.03;  123.816;  -11.858;48792.253; 0.27800
 637.61;  147.737;  -11.293;49058.083; 0.32409
 638.19;  129.693;   -6.629;49345.674; 0.27622
 638.77;  161.319;  -13.929;49167.316; 0.35633
 639.35;  167.146;  -12.363;49237.038; 0.36449
 639.93;  192.112;   -8.196;49427.605; 0.40519
 640.51;  199.954;  -11.829;49606.579; 0.42682
 641.09;  217.790;   -9.662;49583.919; 0.45863
 641.67;  247.125;  -13.829;49464.558; 0.52741
 642.25;  283.895;  -10.395;49857.431; 0.59014
 642.83;  346.864;  -10.662;49827.271; 0.71738
 643.41;  558.466;  -15.362;49799.943; 1.15191
 643.99; 1369.269;  -13.662;50021.650; 2.76391
 644.57; 3397.938;  -12.728;50034.722; 6.81487
 645.14; 5828.374;  -13.295;50234.262;11.62578
 645.72; 7182.143;   -5.295;49829.035;14.42266
 646.30; 8449.479;   -7.695;49748.807;16.99712
 646.88;11708.282;  -15.961;50451.980;23.23107
 647.46;18184.184;   -6.961;50709.786;35.86812
 648.04;24639.820;  -19.895;50516.526;48.79593
 648.62;28520.423;   -8.728;50692.499;56.26915
 649.20;28555.792;  -15.061;50577.805;56.47210
 649.78;26486.461;   -5.394;50976.278;51.96349
 650.36;24562.364;  -11.961;51087.717;48.09096
 650.94;24445.566;  -10.961;51125.357;47.82614
 651.52;26476.735;  -14.728;51477.763;51.44724
 652.09;29563.338;  -12.761;51396.602;57.53057
 652.67;32814.307;  -17.627;51217.042;64.08148
 653.25;35925.776;   -9.194;51748.315;69.42948
 653.83;38507.012;   -7.161;52358.221;73.54892
 654.41;39705.882;   -7.794;52332.827;75.87544
 654.99;40968.084;  -11.094;52745.666;77.67569
 655.57;41326.320;  -12.894;52633.506;78.52239
 656.15;41287.489;  -10.260;52337.479;78.89118
 656.72;42111.225;  -14.494;53071.918;79.35311
 657.30;42549.428;  -12.860;53235.291;79.93195
 657.88;43506.764;  -13.493;53936.164;80.66827
 658.46;44489.299;   -7.360;54348.770;81.86135
 659.04;45608.802;   -6.660;54385.409;83.86418
 659.62;47577.338;   -9.993;55265.316;86.09148
 660.20;49238.707;  -12.093;55644.155;88.49105
 660.77;50673.710;  -13.060;55960.128;90.55545
 661.35;52092.079;  -14.393;56390.601;92.37918
 661.93;53145.115;  -10.093;56758.040;93.63565
 662.51;53742.651;  -12.726;57032.913;94.23223
 663.09;54046.653;   -6.626;57353.452;94.23502
 663.67;53901.122;  -15.259;57263.259;94.13020
 664.24;54250.858;  -12.393;57555.198;94.26007
 664.82;53646.861;  -12.759;57207.471;93.77736
 665.40;53439.930;   -5.859;57015.544;93.72935
 665.98;52941.466;  -10.492;56917.483;93.01571
 666.56;52400.668;   -6.726;56858.956;92.15997
 667.13;52216.738;  -14.659;57222.262;91.25473
 667.71;50608.374;  -15.292;56477.702;89.61052
 668.29;48860.943;  -15.159;55340.441;88.29477
 668.87;48095.812;  -15.525;55137.214;87.23291
 669.44;47451.648;   -9.492;54651.820;86.82766
 670.02;47669.184;  -16.092;54901.960;86.82988
 670.60;47524.586;   -7.392;54393.999;87.37273
 671.18;48208.089;  -10.725;54436.505;88.56064
 671.76;49518.691;   -6.292;54695.111;90.53695
 672.33;50242.727;  -12.692;54536.484;92.12865
 672.91;51546.530;  -17.025;54656.657;94.31147
 673.49;52129.999;  -20.192;54684.463;95.33044
 674.07;52770.402;  -19.691;54893.703;96.13336
 674.64;52361.504;   -9.258;54319.975;96.39518
 675.22;52586.340;  -16.091;54905.948;95.77654
 675.80;51773.743;  -12.891;54753.354;94.55940
 676.38;51135.745;  -11.591;54963.260;93.03770
 676.95;50690.181;   -9.391;55369.467;91.55041
 677.53;49859.884;   -8.891;55208.273;90.31390
 678.11;49616.853;  -12.858;55437.012;89.50375
 678.68;49168.155;  -12.391;55354.752;88.82623
 679.26;50025.525;  -12.691;56155.158;89.08694
 679.84;50577.761;  -13.691;56240.464;89.93372
 680.42;50889.696;  -12.391;56045.704;90.80239
 680.99;51647.432;  -13.057;56107.176;92.05323
 681.57;52251.335;  -12.124;55892.116;93.48747
 682.15;53706.771;  -10.490;56576.755;94.92821
 682.72;54195.773;   -9.724;56391.428;96.10707
 683.30;54536.342;  -10.690;56254.501;96.94632
 683.88;55267.178;  -12.490;56462.674;97.88315
 684.45;55177.814;  -11.357;56283.147;98.03652
 685.03;55007.417;  -13.023;56139.019;97.98475
 685.61;54561.353;   -6.790;55599.092;98.13376
 686.18;54799.522;  -12.757;55872.965;98.07922
 686.76;54021.724;   -8.357;55293.638;97.70006
 687.34;53959.794;  -10.623;55444.544;97.32261
 687.91;53477.863;  -15.923;55037.183;97.16761
 688.49;52997.565;  -11.390;54635.823;97.00212
 689.07;53330.435;  -16.623;54933.062;97.08346
 689.64;52807.604;  -15.356;54551.635;96.80387
 690.22;52064.140;  -16.356;53804.575;96.76625
 690.80;52065.876;  -13.989;53822.748;96.73667
 691.37;51637.512;  -12.156;53434.487;96.63781
 691.95;51324.814;  -17.589;53051.693;96.74599
 692.53;51664.650;  -16.656;53401.066;96.74936
 693.10;51286.319;  -14.189;52968.772;96.82454
 693.68;50511.588;   -7.922;52428.978;96.34343
 694.25;50124.558;  -13.089;51926.218;96.53122
 694.83;49693.427;  -15.122;51429.024;96.62625
 695.41;49910.063;  -16.789;51600.030;96.72594
 695.98;49145.099;  -11.255;51069.770;96.23212
 696.56;49223.735;  -12.255;51053.909;96.41607
 697.13;49057.537;  -10.322;51060.048;96.07892
 697.71;47975.740;  -13.789;50007.188;95.93881
 698.29;47788.942;  -10.322;50010.361;95.55900
 698.86;47258.578;  -14.322;49686.700;95.11454
 699.44;47206.681;  -11.488;49641.706;95.09593
 700.01;46632.116;  -14.622;49162.279;94.85498
 700.59;46639.186;  -11.122;49158.185;94.87689
 701.16;46012.922;  -14.155;48449.958;94.97146
 701.74;45843.824;  -13.221;48186.298;95.14005
 702.32;45828.427;  -10.621;48096.904;95.28457
 702.89;46124.096;  -12.388;48117.877;95.85753
 703.47;45728.598;   -8.688;47564.416;96.14106
 704.04;45580.234;  -12.754;47207.056;96.55479
 704.62;45506.704;  -10.354;46917.795;96.99308
 705.19;45697.573;  -15.221;47067.668;97.09004
 705.77;45439.375;  -14.621;46776.707;97.14192
 706.34;45221.578;   -9.554;46473.447;97.30682
 706.92;44866.147;   -8.421;46347.986;96.80338
 707.49;43542.516;  -10.754;45236.826;96.25547
 708.07;43261.252;  -10.721;45236.299;95.63497
 708.64;42738.221;  -10.521;45246.605;94.45748
 709.22;42392.491;  -11.587;45289.344;93.60531
 709.79;42304.827;  -17.554;45475.350;93.03073
 710.37;41143.362;  -13.587;44622.290;92.20598
 710.94;40317.298;   -7.954;44074.463;91.47695
 711.52;40225.768;  -14.254;44182.736;91.04697
 712.09;39824.103;  -10.587;43811.808;90.90030
 712.67;40209.773;   -5.220;44015.348;91.35501
 713.24;39753.109;   -8.353;43418.254;91.56014
 713.82;39636.778;  -14.653;43060.693;92.05133
 714.39;39910.880;   -8.620;42834.133;93.17679
 714.97;39668.450;  -16.486;42216.706;93.96622
 715.54;39862.485;  -17.120;42090.112;94.70963
 716.12;39993.255;  -10.920;41806.585;95.66371
 716.69;40253.791;  -10.753;41755.691;96.40405
 717.27;40148.293;  -13.086;41392.664;96.99469
 717.84;40184.829;  -14.886;41297.736;97.30613
 718.42;40020.298;  -11.719;41178.409;97.18838
 718.99;39365.067;  -10.219;40619.349;96.91289
 719.57;38455.203;  -17.253;39923.422;96.32400
 720.14;38693.406;  -10.353;40406.294;95.76192
 720.71;37780.708;  -13.286;39838.234;94.83702
 721.29;37262.478;  -17.252;39532.407;94.26056
 721.86;36879.813;  -15.686;39513.046;93.33843
 722.44;35887.116;  -13.452;38611.986;92.94540
 723.01;35485.785;  -15.519;38399.158;92.41599
 723.59;34928.888;  -13.585;38070.465;91.75094
 724.16;34761.790;  -16.685;38040.271;91.38533
 724.73;34967.160;  -10.552;38190.077;91.56318
 725.31;34146.529;  -12.385;37217.050;91.75244
 725.88;34340.765;  -13.452;37314.223;92.03417
 726.46;34177.401;  -12.452;36978.262;92.42820
 727.03;33773.803;  -10.885;36334.035;92.95574
 727.60;33923.739;  -11.185;36125.974;93.90590
 728.18;33849.675;  -13.218;35937.480;94.19259
 728.75;33782.177;  -13.885;35601.787;94.89099
 729.32;33537.780;  -10.751;35173.193;95.35182
 729.90;33302.349;  -19.951;34766.632;95.79067
 730.47;32899.952;  -15.918;34213.905;96.16138
 731.05;33285.188;  -15.818;34527.678;96.40311
 731.62;32879.824;  -10.551;34107.584;96.40144
 732.19;32107.259;   -9.751;33351.990;96.26899
 732.77;31857.029;  -14.518;33113.263;96.20791
 733.34;31595.665;  -19.918;32916.202;95.99061
 733.91;30946.734;  -17.417;32431.642;95.42388
 734.49;30330.103;   -6.384;31892.681;95.10149
 735.06;30214.939;  -19.984;31819.421;94.96070
 735.63;29798.741;  -17.984;31506.694;94.58217
 736.21;29086.811;  -10.784;30941.167;94.00892
 736.78;28805.847;  -17.750;30652.773;93.97817
 737.35;28296.449;   -8.184;30114.146;93.96562
 737.93;28126.952;   -9.450;30007.152;93.73613
 738.50;27984.987;  -16.117;29843.658;93.77534
 739.07;27714.423;  -18.550;29504.297;93.93733
 739.64;27307.226;  -14.383;29076.370;93.91853
 740.22;26945.162;  -11.917;28644.610;94.06960
 740.79;26525.431;  -12.650;28124.482;94.31694
 741.36;26153.100;  -12.583;27676.889;94.49687
 741.94;25770.736;  -13.916;27288.761;94.44001
 742.51;25500.939;   -9.383;26871.634;94.90088
 743.08;25432.475;  -13.250;26780.807;94.96779
 743.65;24704.810;  -14.383;25903.246;95.37598
 744.23;24862.046;  -17.816;26059.786;95.40702
 744.80;24402.582;  -12.483;25481.259;95.76886
 745.37;24093.151;  -12.383;24965.765;96.50649
 745.95;23611.721;  -14.816;24520.871;96.29458
 746.52;23357.073;  -12.966;24236.644;96.37285
 747.09;23102.426;  -11.116;23952.417;96.45298
 747.66;22513.595;  -10.349;23282.490;96.69901
 748.23;22043.298;  -15.349;22669.596;97.23915
 748.81;21964.300;  -14.682;22642.102;97.00839
 749.38;21649.536;  -14.882;22287.241;97.14061
 749.95;21099.972;  -10.149;21704.814;97.21463
 750.52;20905.374;  -17.449;21537.154;97.06894
 751.10;20750.010;  -12.182;21298.193;97.42763
 751.67;19731.480;  -16.615;20276.999;97.31187
 752.24;19802.882;  -10.949;20456.472;96.80668
 752.81;19311.818;  -15.315;19938.145;96.86106
 753.38;18836.887;   -9.982;19502.318;96.58969
 753.96;18532.056;  -18.448;19200.457;96.52217
 754.53;17864.192;  -10.282;18557.897;96.26402
 755.10;17496.962;  -13.248;18181.969;96.23523
 755.67;17231.597;  -14.081;17935.409;96.07893
 756.24;17124.333;  -18.648;17857.982;95.89605
 756.82;16622.002;  -14.781;17246.721;96.38086
 757.39;16288.972;  -20.348;16944.094;96.13826
 757.96;15845.041;   -5.681;16495.167;96.06005
 758.53;15477.610;  -14.514;16032.340;96.54306
 759.10;15224.979;  -12.281;15805.379;96.33069
 759.67;14954.815;  -10.314;15454.452;96.76919
 760.25;14909.184;  -12.081;15474.691;96.34845
 760.82;14429.654;  -12.114;14824.031;97.34178
 761.39;14264.656;  -16.247;14745.770;96.74086
 761.96;13811.492;  -12.914;14231.043;97.05453
 762.53;13289.661;  -15.547;13720.983;96.86004
 763.10;12905.097;  -14.081;13245.356;97.43384
 763.67;12664.600;  -12.514;13079.528;96.83068
 764.25;12713.336;  -11.914;13055.768;97.37955
 764.82;12402.772;  -15.180;12806.107;96.85417
 765.39;11843.441;  -16.380;12232.947;96.82018
 765.96;11455.077;   -6.380;11887.986;96.36038
 766.53;11495.479;  -15.347;11939.659;96.28457
 767.10;11144.248;  -12.047;11581.432;96.22906
 767.67;10950.318;  -14.913;11397.738;96.07961
 768.24;10620.754;  -11.180;11128.444;95.44248
 768.81;10233.389;  -16.547;10688.250;95.75087
 769.39; 9979.659;  -12.280;10454.590;95.46253
 769.96; 9804.161;  -15.180;10248.729;95.66863
 770.53; 9687.797;  -11.180;10133.235;95.60903
 771.10; 9414.800;   -7.913; 9879.808;95.29711
 771.67; 9193.569;  -13.146; 9657.214;95.20550
 772.24; 9038.705;  -10.813; 9374.021;96.42705
 772.81; 8863.274;  -17.979; 9205.827;96.28621
 773.38; 8630.677;  -10.079; 8992.733;95.97841
 773.95; 8414.812;   -9.346; 8763.872;96.02130
 774.52; 8287.182;  -17.212; 8589.578;96.48653
 775.09; 8144.051;  -18.312; 8404.318;96.90991
 775.66; 7898.320;  -16.346; 8196.824;96.36554
 776.23; 7647.756;  -20.012; 7861.597;97.28684
 776.80; 7702.558;  -20.946; 7912.236;97.35695
 777.37; 7438.061;  -16.445; 7700.143;96.60366
 777.94; 7267.397;  -12.779; 7493.549;96.98718
 778.51; 7185.933;  -17.012; 7438.822;96.60818
 779.08; 7042.469;  -13.012; 7296.761;96.52120
 779.65; 6898.138;  -10.545; 7132.767;96.71540
 780.22; 6694.407;  -18.112; 6912.707;96.85031
 780.79; 6583.410;  -19.112; 6848.613;96.13841
 781.36; 6381.712;  -15.745; 6672.319;95.65485
 781.93; 6243.081;  -15.445; 6606.625;94.51012
 782.50; 6113.984;  -17.311; 6437.065;94.99440
 783.07; 5985.020;  -16.378; 6315.571;94.77964
 783.64; 5844.522;  -15.211; 6200.544;94.27228
 784.21; 5755.492;  -15.311; 6089.416;94.53006
 784.78; 5616.028;   -9.811; 5989.722;93.77127
 785.35; 5615.963;   -7.878; 6006.295;93.50980
 785.92; 5442.966;  -11.311; 5769.068;94.35847
 786.49; 5384.002;  -13.078; 5741.274;93.79127
 787.06; 5248.038;  -11.878; 5582.847;94.01563
 787.63; 5351.874;  -22.378; 5695.220;93.99492
 788.20; 5148.443;   -8.777; 5423.126;94.94315
 788.77; 5084.945;  -15.277; 5379.932;94.53243
 789.34; 5065.248;  -17.344; 5340.772;94.85782
 789.91; 5022.384;  -15.377; 5266.711;95.37442
 790.48; 5026.986;  -17.611; 5256.217;95.65343
 791.05; 4888.889;  -19.810; 5101.390;95.85056
 791.62; 4852.558;  -16.210; 5047.896;96.14269
 792.19; 4817.461;  -15.710; 5011.036;96.14910
 792.76; 4813.963;  -13.077; 5003.375;96.22419
 793.33; 4779.332;  -13.577; 4924.081;97.06847
 793.89; 4677.135;  -20.243; 4840.321;96.64266
 794.46; 4636.204;   -9.810; 4796.360;96.66770
 795.03; 4685.807;  -20.110; 4848.366;96.66098
 795.60; 4562.376;   -5.377; 4730.573;96.44851
 796.17; 4460.545;  -23.476; 4647.712;95.99316
 796.74; 4449.448;  -15.276; 4656.618;95.56560
 797.31; 4435.117;  -12.210; 4669.158;95.00059
 797.88; 4369.653;  -14.476; 4578.764;95.44742
 798.45; 4405.255;  -15.310; 4603.070;95.71680
 799.01; 4351.391;  -20.276; 4543.243;95.79597
 799.58; 4320.327;  -13.309; 4520.249;95.59018
 800.15; 4190.663;  -16.476; 4406.455;95.12106
 800.72; 4222.432;  -12.809; 4460.495;94.67816
 801.29; 4263.735;   -8.476; 4509.001;94.57073
 801.86; 4227.104;  -13.542; 4492.940;94.10103
 802.43; 4197.040;  -11.476; 4445.846;94.41803
 802.99; 4152.576;  -20.442; 4392.086;94.57205
 803.56; 4223.812;  -10.876; 4449.092;94.94884
 804.13; 4129.514;  -14.809; 4383.198;94.23185
 804.70; 4186.117;  -15.775; 4379.171;95.60736
 805.27; 4128.019;  -17.575; 4344.344;95.04061
 805.84; 4139.889;  -10.709; 4325.017;95.73017
 806.40; 4179.758;  -10.375; 4413.389;94.71872
 806.97; 4187.560;  -16.208; 4383.496;95.54663
 807.54; 4187.230;  -17.508; 4405.735;95.06006
 808.11; 4128.099;  -15.875; 4327.708;95.40451
 808.68; 4145.435;  -15.508; 4349.881;95.31666
 809.24; 4170.237;  -12.375; 4381.787;95.18567
 809.81; 4070.307;  -17.075; 4264.926;95.45493
 810.38; 4058.642;  -16.408; 4268.866;95.09428
 810.95; 4035.578;  -14.008; 4229.805;95.42329
 811.52; 3951.947;  -22.075; 4143.578;95.39975
 812.08; 3927.317;  -14.141; 4107.451;95.62950
 812.65; 3998.219;  -19.974; 4211.957;94.94940
 813.22; 3934.022;  -11.641; 4105.430;95.83665
 813.79; 3926.291;  -14.908; 4109.269;95.56328
 814.35; 3946.160;  -16.508; 4116.809;95.87139
 814.92; 3901.763;  -17.674; 4079.415;95.66394
 815.49; 3908.299;   -7.741; 4084.688;95.68987
 816.06; 3873.935;  -12.607; 4055.561;95.53543
 816.62; 3770.070;  -10.374; 3972.367;94.92068
 817.19; 3765.840;  -17.274; 3975.040;94.75993
 817.76; 3818.542;  -11.674; 3993.746;95.62584
 818.33; 3790.145;  -17.640; 3950.452;95.96010
 818.89; 3784.514;  -18.774; 3989.325;94.89008
 819.46; 3766.250;  -10.707; 3954.997;95.24050
 820.03; 3719.152;  -18.040; 3936.237;94.51013
 820.60; 3748.788;  -11.440; 3929.443;95.41588
 821.16; 3722.491;  -16.207; 3926.783;94.81886
 821.73; 3702.327;  -16.407; 3883.389;95.35714
 822.30; 3641.496;  -13.707; 3782.095;96.29594
 822.86; 3645.599;  -19.240; 3816.334;95.54862
 823.43; 3678.034;  -20.006; 3845.707;95.66257
 824.00; 3676.037;  -12.406; 3853.880;95.40016
 824.56; 3573.906;  -18.506; 3760.286;95.06774
 825.13; 3584.775;  -19.173; 3761.459;95.32661
 825.70; 3588.778;  -14.339; 3786.165;94.80629
 826.26; 3623.847;  -15.506; 3795.271;95.50160
 826.83; 3578.116;  -15.239; 3744.177;95.58280
 827.40; 3616.086;  -17.039; 3813.917;94.83598
 827.96; 3572.588;  -17.873; 3750.890;95.26896
 828.53; 3541.124;  -19.506; 3714.363;95.36035
 829.10; 3531.760;  -19.206; 3705.969;95.32347
 829.66; 3496.162;  -14.872; 3710.108;94.25646
 830.23; 3499.398;  -18.372; 3656.681;95.72026
 830.80; 3532.434;  -20.406; 3673.120;96.19101
 831.36; 3468.537;  -15.605; 3671.327;94.49977
 831.93; 3459.539;  -23.839; 3621.966;95.54483
 832.49; 3486.875;  -12.772; 3648.306;95.59063
 833.06; 3468.978;   -9.139; 3636.178;95.41328
 833.63; 3502.180;  -16.272; 3630.118;96.49139
 834.19; 3418.750;  -15.305; 3601.424;94.94918
 834.76; 3440.519;  -21.438; 3573.663;96.29650
 835.33; 3393.421;   -9.972; 3535.370;95.99620
 835.89; 3423.257;  -19.705; 3548.209;96.49790
 836.46; 3446.060;  -16.905; 3557.815;96.87373
 837.02; 3423.529;  -12.771; 3547.521;96.51735
 837.59; 3379.398;  -17.838; 3548.794;95.25053
 838.15; 3357.767;  -14.638; 3498.334;95.99865
 838.72; 3359.670;   -8.205; 3498.640;96.03718
 839.29; 3296.906;  -18.438; 3395.713;97.10596
 839.85; 3333.975;  -23.838; 3460.152;96.37837
 840.42; 3349.711;  -13.604; 3474.825;96.41346
 840.98; 3275.214;  -12.338; 3427.664;95.56829
 841.55; 3267.316;  -13.804; 3409.537;95.84555
 842.11; 3239.985;  -15.604; 3383.177;95.78698
 842.68; 3222.455;  -19.371; 3373.483;95.54863
 843.24; 3224.824;  -15.804; 3365.989;95.82573
 843.81; 3201.226;  -16.171; 3356.262;95.40286
 844.38; 3203.429;  -18.537; 3348.801;95.68287
 844.94; 3141.565;  -15.604; 3297.174;95.30275
 845.51; 3147.467;  -17.670; 3282.114;95.91954
 846.07; 3120.637;  -19.204; 3280.753;95.14792
 846.64; 3136.039;  -14.270; 3290.793;95.31768
 847.20; 3100.408;  -20.337; 3237.165;95.80178
 847.77; 3109.811;  -12.370; 3250.872;95.67728
 848.33; 3034.647;  -13.570; 3193.878;95.03559
 848.90; 3045.116;  -12.737; 3189.117;95.50257
 849.46; 3051.918;  -15.303; 3187.923;95.75413
 850.03; 2994.988;  -16.136; 3183.029;94.12216
 850.59; 3057.590;  -16.903; 3188.769;95.90792
 851.16; 2988.593;  -20.170; 3136.642;95.31017
 851.72; 2948.129;  -13.770; 3097.381;95.20266
 852.29; 2954.331;  -17.669; 3100.487;95.31274
 852.85; 2998.800;  -19.369; 3099.394;96.77458
 853.41; 2921.170;  -17.769; 3059.500;95.50478
 853.98; 2968.106;   -7.669; 3083.673;96.26159
 854.54; 2913.608;  -11.003; 3039.045;95.88737
 855.11; 2901.411;  -18.802; 3020.718;96.07479
 855.67; 2885.113;  -12.069; 2985.891;96.63846
 856.24; 2844.216;  -18.002; 2979.930;95.47306
 856.80; 2878.318;  -18.969; 2946.503;97.70071
 857.37; 2836.854;  -19.769; 2936.643;96.62467
 857.93; 2791.590;  -17.835; 2876.316;97.07253
 858.49; 2831.726;  -17.435; 2921.822;96.93475
 859.06; 2800.629;  -19.269; 2884.495;97.11182
 859.62; 2732.064;   -8.435; 2843.134;96.10497
 860.19; 2677.200;  -20.969; 2768.873;96.71404
 860.75; 2722.870;  -14.268; 2837.046;95.99564
 861.31; 2706.139;  -14.268; 2793.252;96.89713
 861.88; 2745.975;  -21.102; 2844.425;96.56431
 862.44; 2669.577;  -21.502; 2763.665;96.62183
 863.01; 2635.080;  -17.668; 2742.104;96.12198
 863.57; 2611.116;  -13.201; 2699.377;96.74622
 864.13; 2589.285;  -18.868; 2680.750;96.61193
 864.70; 2569.387;  -19.235; 2666.389;96.38810
 865.26; 2562.357;  -13.501; 2655.429;96.51275
 865.82; 2534.892;  -19.001; 2660.068;95.32764
 866.39; 2526.662;  -19.834; 2624.741;96.29130
 866.95; 2493.198;  -17.101; 2585.014;96.47147
 867.52; 2489.267;  -23.401; 2570.720;96.86008
 868.08; 2459.536;  -18.001; 2547.526;96.57029
 868.64; 2435.239;  -13.834; 2522.266;96.56847
 869.21; 2405.174;  -15.367; 2509.572;95.86535
 869.77; 2375.710;  -17.801; 2468.145;96.28172
 870.33; 2359.246;  -15.501; 2438.451;96.77237
 870.90; 2350.715;  -14.100; 2432.457;96.65892
 871.46; 2341.518;  -14.567; 2439.130;96.02185
 872.02; 2314.787;  -20.767; 2431.636;95.23534
 872.58; 2291.290;  -10.067; 2407.275;95.20194
 873.15; 2261.692;  -21.767; 2352.048;96.19364
 873.71; 2270.295;  -15.167; 2368.821;95.86717
 874.27; 2276.964;  -13.100; 2364.727;96.30911
 874.84; 2225.400;  -11.900; 2332.800;95.41946
 875.40; 2218.000;  -20.633; 2301.033;96.42355
 875.96; 2199.367;  -12.300; 2302.667;95.53773
 876.53; 2124.500;  -19.400; 2242.533;94.78175
 877.09; 2131.400;  -12.233; 2245.400;94.95046
 877.65; 2110.500;  -23.133; 2212.700;95.42900
 878.21; 2097.033;  -22.333; 2189.567;95.81657
 878.78; 2064.333;  -13.167; 2183.600;94.57081
 879.34; 2048.667;  -11.133; 2132.833;96.07425
 879.90; 2013.033;  -17.767; 2143.633;93.95762
 880.46; 1992.767;  -19.833; 2101.833;94.85939
 881.03; 1967.967;  -17.433; 2069.433;95.13785
 881.59; 1992.600;  -18.300; 2078.633;95.89718
 882.15; 1949.967;  -22.633; 2055.800;94.90802
 882.71; 1910.100;  -15.800; 2010.967;95.02327
 883.28; 1905.467;  -12.500; 2004.467;95.09164
 883.84; 1862.233;  -14.033; 1971.233;94.50955
 884.40; 1836.800;  -21.700; 1939.367;94.76985
 884.96; 1884.200;  -11.300; 1965.133;95.90508
 885.52; 1848.100;  -14.233; 1928.700;95.85163
 886.09; 1832.933;  -21.200; 1922.700;95.38214
 886.65; 1772.800;  -11.067; 1840.767;96.32976
 887.21; 1766.933;  -16.400; 1838.200;96.15730
 887.77; 1760.633;  -15.967; 1850.200;95.20050
 888.33; 1782.833;  -18.000; 1852.067;96.29781
 888.90; 1765.567;  -17.333; 1827.467;96.64462
 889.46; 1730.967;  -20.200; 1784.500;97.03367
 890.02; 1705.533;  -17.133; 1794.233;95.10314
 890.58; 1723.167;  -23.533; 1791.567;96.23161
 891.14; 1746.067;  -17.633; 1820.733;95.93842
 891.70; 1671.400;  -16.200; 1758.000;95.11893
 892.27; 1688.400;  -16.400; 1756.267;96.17149
 892.83; 1664.133;  -18.533; 1747.433;95.28304
 893.39; 1694.367;  -15.933; 1764.600;96.05549
 893.95; 1675.933;  -20.067; 1752.867;95.66068
 894.51; 1645.333;  -17.167; 1742.500;94.47812
 895.07; 1668.900;  -15.500; 1770.800;94.29547
 895.63; 1666.467;  -18.433; 1741.433;95.74021
 896.20; 1654.367;  -15.533; 1740.100;95.11667
 896.76; 1664.967;  -14.133; 1746.600;95.36367
 897.32; 1659.300;  -17.000; 1761.333;94.26242
 897.88; 1666.133;  -15.900; 1746.733;95.42730
 898.44; 1696.967;  -12.833; 1780.733;95.32960
 899.00; 1668.067;  -16.933; 1770.700;94.25870
 899.56; 1684.867;  -12.833; 1747.900;96.42005
 900.12; 1681.633;  -21.267; 1753.700;95.93983
 900.68; 1646.400;  -15.667; 1737.500;94.80369
 901.24; 1648.633;  -18.100; 1742.667;94.65952
 901.81; 1648.233;  -16.767; 1727.167;95.47383
 902.37; 1652.167;  -20.500; 1754.567;94.23120
 902.93; 1643.967;  -16.733; 1749.433;94.02850
 903.49; 1619.633;  -18.467; 1727.633;93.81479
 904.05; 1599.700;  -17.400; 1700.233;94.14699
 904.61; 1589.500;  -19.567; 1698.100;93.67747
 905.17; 1564.900;  -20.767; 1653.767;94.69305
 905.73; 1581.100;  -17.900; 1667.200;94.89051
 906.29; 1601.233;  -13.867; 1680.133;95.34238
 906.85; 1541.600;  -19.200; 1630.000;94.63983
 907.41; 1596.567;  -15.633; 1655.933;96.44844
 907.97; 1554.867;  -16.267; 1624.167;95.77551
 908.53; 1526.133;  -14.233; 1613.933;94.60743
 909.09; 1533.000;  -20.600; 1604.000;95.62969
 909.65; 1511.600;  -18.700; 1582.033;95.59993
 910.21; 1495.633;  -18.267; 1568.900;95.38381
 910.77; 1468.233;  -17.100; 1532.133;95.87538
 911.33; 1473.433;  -14.433; 1540.767;95.67044
 911.89; 1491.033;  -20.467; 1547.367;96.40693
 912.45; 1461.000;  -15.400; 1535.500;95.19634
 913.01; 1411.700;  -20.867; 1479.000;95.51293
 913.57; 1402.967;  -28.700; 1468.567;95.61868
 914.13; 1421.900;  -16.033; 1465.267;97.07239
 914.69; 1380.633;  -15.467; 1459.333;94.66368
 915.25; 1354.433;  -21.767; 1437.233;94.32488
 915.81; 1352.133;  -10.133; 1436.467;94.17024
 916.37; 1378.367;  -13.633; 1421.533;96.99222
 916.93; 1322.133;  -16.667; 1390.267;95.15732
 917.49; 1328.433;  -16.967; 1428.200;93.09653
 918.05; 1316.933;  -13.400; 1399.100;94.18289
 918.61; 1311.367;  -19.367; 1385.833;94.70064
 919.17; 1290.100;  -15.933; 1363.767;94.66068
 919.73; 1285.233;  -15.600; 1354.333;94.95596
 920.29; 1302.100;  -15.300; 1382.233;94.26609
 920.85; 1260.300;  -12.233; 1348.533;93.51591
 921.40; 1241.167;  -20.267; 1319.333;94.16492
 921.96; 1238.167;  -15.900; 1322.667;93.68728
 922.52; 1227.167;  -14.333; 1300.833;94.39868
 923.08; 1208.600;  -20.700; 1300.400;93.05125
 923.64; 1203.233;  -19.567; 1274.867;94.46605
 924.20; 1207.500;  -12.867; 1265.400;95.47043
 924.76; 1177.433;  -19.067; 1254.967;93.91434
 925.32; 1188.100;  -22.500; 1253.567;94.86965
 925.88; 1190.067;  -16.333; 1270.000;93.78595
 926.44; 1205.133;  -21.367; 1273.167;94.74457
 926.99; 1165.467;  -21.500; 1227.133;95.06127
 927.55; 1162.633;  -16.867; 1224.933;94.98309
 928.11; 1170.167;  -21.800; 1231.667;95.09361
 928.67; 1141.433;  -11.500; 1207.400;94.58802
 929.23; 1146.367;  -19.400; 1229.500;93.34348
 929.79; 1129.200;  -18.900; 1182.133;95.59268
 930.35; 1124.900;  -18.933; 1189.100;94.68558
 930.90; 1148.733;  -20.433; 1197.433;96.00120
 931.46; 1132.400;  -14.933; 1194.633;94.85491
 932.02; 1097.667;  -15.600; 1152.100;95.33841
 932.58; 1094.867;  -16.967; 1148.933;95.36267
 933.14; 1110.567;  -13.167; 1161.033;95.70204
 933.69; 1095.333;  -11.633; 1155.467;94.84763
 934.25; 1063.167;  -19.400; 1122.433;94.80952
 934.81; 1080.933;  -14.800; 1139.967;94.88786
 935.37; 1060.067;  -19.367; 1116.200;95.05680
 935.93; 1066.400;  -17.567; 1106.667;96.41830
 936.49; 1060.833;  -11.733; 1123.900;94.44656
 937.04; 1058.833;  -14.200; 1119.767;94.62653
 937.60; 1074.567;  -16.333; 1125.033;95.57840
 938.16; 1055.100;  -19.767; 1082.333;97.52896
 938.72; 1023.667;  -13.633; 1103.867;92.82327
 939.27; 1027.167;  -12.967; 1073.833;95.70605
 939.83; 1024.467;  -20.467; 1094.667;93.70479
 940.39; 1013.300;  -16.867; 1075.367;94.31745
 940.95;  995.333;  -16.000; 1053.933;94.52302
 941.50; 1015.133;  -18.033; 1052.967;96.46748
 942.06;  994.333;  -15.300; 1056.800;94.17343
 942.62;  991.800;  -20.800; 1031.633;96.21512
 943.18;  986.933;  -13.567; 1030.667;95.81192
 943.73;  973.533;  -21.000; 1020.633;95.47826
 944.29;  922.867;  -16.067;  977.933;94.46009
 944.85;  952.600;  -23.900; 1005.300;94.87952
 945.41;  953.200;  -16.833; 1006.067;94.83169
 945.96;  947.533;  -12.133; 1002.833;94.55155
 946.52;  938.933;  -14.233;  992.300;94.69797
 947.08;  934.233;  -20.200;  992.533;94.24330
 947.63;  925.633;  -21.200;  981.133;94.46292
 948.19;  904.967;  -19.267;  958.833;94.49272
 948.75;  903.867;  -16.533;  953.667;94.86704
 949.31;  897.900;  -11.467;  957.100;93.88788
 949.86;  898.333;  -15.300;  941.633;95.47513
 950.42;  886.333;  -18.533;  947.167;93.70060
 950.98;  889.333;  -17.233;  932.567;95.44816
 951.53;  861.867;  -20.200;  916.800;94.13732
 952.09;  828.667;  -16.367;  900.333;92.18210
 952.65;  837.300;  -17.933;  910.633;92.10252
 953.20;  854.000;  -12.100;  917.967;93.12236
 953.76;  832.533;  -19.000;  885.233;94.17186
 954.32;  837.600;  -18.967;  899.167;93.29437
 954.87;  820.467;  -20.033;  889.367;92.42358
 955.43;  819.367;  -15.333;  858.367;95.53623
 955.98;  794.333;  -25.800;  855.833;93.02431
 956.54;  806.567;  -13.333;  851.500;94.80439
 957.10;  796.200;  -24.300;  849.900;93.85724
 957.65;  801.167;  -21.633;  843.900;95.06277
 958.21;  779.267;  -11.833;  836.500;93.25344
 958.77;  783.033;  -16.467;  847.267;92.56329
 959.32;  777.900;  -20.400;  825.667;94.35427
 959.88;  770.000;  -16.600;  828.900;93.03371
 960.43;  757.967;  -22.600;  819.867;92.65253
 960.99;  753.800;  -21.133;  813.000;92.90281
 961.54;  746.733;  -17.967;  802.167;93.24094
 962.10;  741.933;  -22.100;  796.267;93.36076
 962.66;  740.600;  -14.433;  792.033;93.62239
 963.21;  712.200;  -15.300;  765.600;93.16174
 963.77;  716.600;  -23.133;  763.967;93.98213
 964.32;  714.633;  -14.367;  773.567;92.52052
 964.88;  705.700;  -16.667;  753.267;93.82198
 965.43;  699.100;  -22.033;  755.700;92.72244
 965.99;  708.133;  -18.267;  743.433;95.36563
 966.55;  697.067;  -18.567;  740.133;94.32362
 967.10;  698.067;  -22.167;  727.933;96.01831
 967.66;  674.667;  -14.067;  721.467;93.63727
 968.21;  667.200;  -14.800;  718.333;93.02537
 968.77;  659.067;  -20.167;  706.667;93.45104
 969.32;  642.633;  -19.667;  695.933;92.55170
 969.88;  651.267;  -19.567;  694.467;93.94986
 970.43;  633.233;  -18.333;  684.800;92.66616
 970.99;  642.333;  -15.700;  682.567;94.23811
 971.54;  646.200;  -19.867;  676.900;95.59393
 972.10;  634.367;  -16.700;  680.800;93.34289
 972.65;  620.467;  -21.233;  669.133;92.95061
 973.21;  616.667;  -17.600;  646.067;95.57007
 973.76;  600.933;  -17.133;  644.400;93.42941
 974.32;  594.800;  -15.167;  648.667;91.88551
 974.87;  584.533;  -16.400;  636.967;91.97490
 975.43;  589.500;  -18.133;  629.367;93.84299
 975.98;  563.467;  -27.333;  621.233;91.09318
 976.53;  576.067;  -12.333;  627.867;91.90878
 977.09;  558.633;  -16.867;  601.867;93.01261
 977.64;  544.667;  -24.567;  577.200;94.59370
 978.20;  552.233;  -17.267;  586.600;94.30890
 978.75;  546.667;  -20.833;  586.133;93.49772
 979.31;  539.633;  -16.567;  577.700;93.59435
 979.86;  533.233;  -17.600;  562.567;94.94398
 980.42;  521.267;  -17.467;  575.667;90.82837
 980.97;  520.767;  -13.267;  556.467;93.73391
 981.52;  498.367;  -20.167;  544.467;91.83541
 982.08;  494.233;  -17.633;  540.467;91.71594
 982.63;  505.100;  -12.267;  550.467;91.93816
 983.19;  487.667;  -17.433;  541.033;90.44407
 983.74;  458.867;  -19.600;  518.700;88.88476
 984.29;  478.100;  -14.500;  521.000;91.98880
 984.85;  461.933;  -19.233;  525.700;88.29826
 985.40;  465.967;  -11.933;  492.900;94.66491
 985.96;  452.100;  -21.867;  490.400;92.52343
 986.51;  451.233;  -18.000;  492.800;91.86244
 987.06;  446.933;  -20.100;  488.900;91.75508
 987.62;  439.133;  -19.733;  494.233;89.27946
 988.17;  442.467;  -17.067;  478.167;92.79128
 988.72;  430.100;  -22.000;  469.633;91.95878
 989.28;  422.267;  -18.767;  464.033;91.34907
 989.83;  416.367;  -16.100;  462.433;90.37336
 990.38;  416.167;  -24.433;  455.800;91.74707
 990.94;  396.333;  -19.767;  438.867;90.72607
 991.49;  377.300;  -19.500;  437.300;86.86515
 992.04;  373.500;  -20.667;  419.367;89.57655
 992.60;  380.200;  -16.467;  423.400;90.17884
 993.15;  381.633;   -7.767;  418.833;91.27989
 993.70;  359.600;  -19.067;  405.633;89.16098
 994.26;  381.200;  -19.833;  413.067;92.63879
 994.81;  361.067;  -16.300;  403.733;89.84208
 995.36;  372.133;  -19.067;  407.367;91.73767
 995.91;  362.167;  -20.533;  409.500;88.99310
 996.47;  351.633;  -22.433;  386.000;91.58573
 997.02;  328.933;  -14.833;  379.333;87.21353
 997.57;  333.800;  -14.333;  369.933;90.59681
 998.13;  336.000;   -9.800;  375.800;89.67842
 998.68;  326.400;  -24.033;  359.233;91.43329
 999.23;  318.967;  -21.133;  353.600;90.75787
 999.78;  318.000;  -16.600;  358.167;89.28222
1000.34;  320.233;  -19.300;  352.233;91.38704
1000.89;  297.733;  -15.500;  339.267;88.29277
1001.44;  289.067;  -17.533;  320.200;90.78168
1001.99;  275.867;  -20.567;  317.800;87.60713
1002.55;  277.533;  -20.133;  312.767;89.41624
1003.10;  274.500;  -24.133;  312.567;88.69419
1003.65;  266.067;  -21.167;  294.533;90.98300
1004.20;  253.100;  -19.367;  296.167;86.35115
1004.75;  249.467;  -24.800;  292.467;86.44673
1005.31;  256.033;  -26.000;  284.867;90.72486
1005.86;  237.167;  -21.833;  282.400;85.13203
1006.41;  243.433;  -24.233;  279.800;88.03859
1006.96;  247.033;  -18.567;  281.300;88.57270
1007.51;  247.767;  -19.867;  281.267;88.87536
1008.07;  239.633;  -13.133;  282.967;85.36530
1008.62;  242.333;  -13.400;  284.133;85.95115
1009.17;  244.133;  -20.800;  292.967;84.43642
1009.72;  261.133;  -21.067;  297.967;88.45471
1010.27;  266.967;  -23.133;  304.333;88.58917
1010.82;  274.833;  -19.933;  326.100;85.18447
1011.38;  284.633;  -17.567;  316.267;90.52421
1011.93;  271.767;  -27.933;  320.167;86.09595
1012.48;  280.633;  -17.167;  321.533;87.92442
1013.03;  268.533;  -14.233;  313.067;86.39373
1013.58;  277.267;  -18.233;  324.167;86.30257
1014.13;  265.133;  -16.333;  304.433;87.74810
1014.68;  246.467;  -21.667;  293.500;85.07668
1015.24;  248.933;  -14.533;  293.567;85.51336
1015.79;  251.400;  -23.767;  285.267;89.04110
1016.34;  239.667;  -23.767;  276.000;87.87946
1016.89;  237.900;  -25.100;  267.967;89.74067
1017.44;  239.733;  -18.900;  265.067;91.07877
1017.99;  231.467;  -27.167;  273.567;86.00089
1018.54;  229.067;  -19.900;  267.000;86.77820
1019.09;  227.667;  -21.600;  254.367;90.32492
1019.64;  213.767;  -22.100;  242.800;89.03989
1020.19;  212.200;  -25.000;  240.700;89.27362
1020.75;  208.800;  -15.367;  246.700;85.53803
1021.30;  192.300;  -21.233;  240.433;81.60510
1021.85;  201.200;  -23.067;  237.000;86.23430
1022.40;  194.633;  -18.033;  232.333;84.94208
1022.95;  189.667;  -18.933;  219.533;87.47554
1023.50;  193.700;  -19.333;  226.767;86.56373
1024.05;  180.100;  -22.600;  205.500;88.86453
1024.60;  185.267;  -20.667;  216.433;86.85505
1025.15;  177.067;  -19.533;  204.800;87.63744
1025.70;  170.033;  -14.333;  201.733;85.32860
1026.25;  166.933;  -20.367;  203.033;83.84064
1026.80;  169.133;  -20.533;  204.633;84.23390
1027.35;  165.700;  -18.100;  205.600;82.16361
1027.90;  152.600;  -18.600;  195.367;80.01246
1028.45;  164.633;  -18.033;  181.500;91.54694
1029.00;  152.433;  -28.667;  189.000;83.20061
1029.55;  149.967;  -15.000;  179.400;84.85940
1030.10;  152.467;  -21.167;  178.567;86.93258
1030.65;  149.467;  -19.867;  174.900;86.94164
1031.20;  139.933;  -19.467;  185.567;77.74346
1031.75;  139.867;  -14.133;  170.967;83.19827
1032.30;  135.600;  -15.800;  172.767;80.28991
1032.85;  136.767;  -16.100;  168.933;82.61574
1033.40;  137.067;  -21.300;  164.100;85.41891
1033.95;  122.633;  -14.133;  161.100;78.04832
1034.50;  133.767;  -17.767;  168.433;81.38203
1035.05;  123.533;  -22.033;  150.367;84.43542
1035.60;  125.100;  -17.567;  153.900;83.20373
1036.15;  116.833;  -19.900;  153.567;78.82398
1036.69;  122.067;  -22.700;  154.300;81.78908
1037.24;  117.200;  -22.667;  155.100;78.67992
1037.79;  116.533;  -18.300;  152.233;79.06568
1038.34;  123.033;  -20.500;  148.000;85.18299
1038.89;  109.600;  -24.700;  142.100;80.51559
1039.44;  109.100;  -21.967;  141.200;80.32686
1039.99;   99.000;  -27.000;  142.933;74.14672
1040.54;  108.800;  -22.767;  140.800;80.43611
1041.09;   97.867;  -23.600;  138.000;75.16502
1041.64;  108.333;  -15.733;  135.633;81.96433
1042.18;  100.500;  -20.767;  132.533;79.10415
1042.73;  109.400;  -20.600;  128.967;86.91776
1043.28;   93.167;  -20.567;  132.100;74.49782
1043.83;   90.033;  -17.567;  130.400;72.71908
1044.38;  101.600;  -17.767;  132.133;79.63086
1044.93;   88.000;  -22.900;  131.633;71.76445
1045.48;   93.133;  -23.200;  126.467;77.72829
1046.02;   93.600;  -18.067;  122.267;79.57245
1046.57;   90.000;  -16.767;  121.167;77.40454
1047.12;   84.033;  -19.133;  121.867;73.16785
1047.67;   87.533;  -22.333;  118.733;77.88280
1048.22;   80.900;  -15.333;  115.067;73.79857
1048.77;   85.533;  -26.367;  116.733;78.19707
1049.31;   88.800;  -20.300;  111.800;82.58895
1049.86;   74.633;  -21.767;  113.467;71.28420
1050.41;   79.200;  -22.200;  110.700;76.29797
1050.96;   76.400;  -24.533;  106.200;77.20551
1051.51;   74.133;  -19.267;   94.833;81.85802
1052.05;   75.633;  -26.267;  110.867;74.30724
1052.60;   78.700;  -14.933;   99.700;81.68072
1053.15;   71.833;  -18.800;  103.733;73.96627
1053.70;   82.767;  -24.733;   99.567;86.48431
1054.25;   71.167;  -19.500;  108.667;70.74122
1054.79;   69.033;  -17.267;   98.700;74.41794
1055.34;   73.567;  -20.600;   96.533;80.39271
1055.89;   65.767;  -20.267;   97.200;73.24064
1056.44;   68.600;  -21.467;   97.500;75.70748
1056.98;   71.800;  -21.667;   94.000;80.80692
1057.53;   61.833;  -20.933;   99.000;69.01056
1058.08;   68.567;  -22.967;   92.400;79.34123
1058.63;   58.200;  -24.367;   96.867;68.10558
1059.17;   59.133;  -14.733;   97.267;65.95238
1059.72;   55.667;  -25.767;   89.267;70.79107
1060.27;   64.200;  -18.033;   87.367;78.02024
1060.81;   64.167;  -21.067;   92.333;75.16167
1061.36;   57.367;  -21.033;   87.533;72.21369
1061.91;   53.867;  -20.733;   81.533;72.94655
1062.45;   52.567;  -21.500;   86.433;68.62261
1063.00;   58.467;  -23.467;   89.133;72.76495
1063.55;   57.733;  -22.567;   77.567;80.19308
1064.10;   62.500;  -18.833;   86.967;76.87461
1064.64;   57.400;  -20.400;   85.033;73.79070
1065.19;   54.033;  -20.767;   78.833;75.10040
1065.74;   54.633;  -16.133;   79.567;73.94636
1066.28;   54.467;  -16.800;   79.433;74.05611
1066.83;   57.300;  -18.133;   80.033;76.84211
1067.38;   52.667;  -17.300;   84.700;68.59477
1067.92;   54.167;  -16.100;   78.133;74.56668
1068.47;   49.033;  -22.100;   79.133;70.26671
1069.01;   47.133;  -21.867;   75.133;71.13402
1069.56;   50.533;  -17.367;   72.000;75.97911
1070.11;   54.067;  -22.767;   67.500;85.11817
1070.65;   41.067;  -18.933;   76.933;62.58693
1071.20;   49.133;  -20.600;   74.467;73.35203
1071.75;   42.033;  -20.233;   67.000;71.37944
1072.29;   47.767;  -19.267;   70.967;74.28888
1072.84;   41.233;  -25.900;   70.533;69.61632
1073.38;   42.867;  -18.933;   67.600;71.41757
1073.93;   43.000;  -25.067;   65.367;75.26723
1074.48;   46.900;  -20.433;   69.233;75.09294
1075.02;   44.900;  -25.400;   64.800;77.93792
1075.57;   46.167;  -24.500;   60.900;82.74785
1076.11;   43.267;  -17.033;   73.933;66.28802
1076.66;   37.100;  -20.600;   65.500;67.01510
1077.20;   44.300;  -17.367;   65.333;74.56671
1077.75;   43.900;  -18.233;   64.467;75.13100
1078.29;   34.933;  -22.833;   64.933;65.81846
1078.84;   35.167;  -17.100;   57.467;70.09388
1079.39;   43.633;  -18.400;   67.400;72.29992
1079.93;   39.267;  -18.767;   61.567;72.24066
1080.48;   33.800;  -23.067;   59.767;68.65191
1081.02;   40.767;  -28.567;   54.700;83.26661
1081.57;   37.100;  -20.833;   57.933;73.55057
1082.11;   36.000;  -21.933;   62.900;68.29077
1082.66;   38.600;  -20.767;   68.333;66.62926
1083.20;   38.567;  -18.700;   60.533;72.27598
1083.75;   35.100;  -19.233;   57.767;70.56277
1084.29;   33.200;  -17.333;   46.833;78.75325
1084.84;   37.300;  -17.933;   49.733;81.62562
1085.38;   35.133;  -18.367;   52.733;75.24613
1085.93;   29.500;  -25.567;   55.000;68.34919
1086.47;   37.033;  -26.400;   58.900;74.36499
1087.02;   31.633;  -17.500;   50.533;72.21950
1087.56;   33.800;  -20.367;   55.400;71.49142
1088.10;   27.033;  -19.167;   58.300;59.63855
1088.65;   36.033;  -16.067;   46.233;83.62761
1089.19;   35.667;  -26.500;   51.633;79.56485
1089.74;   35.667;  -19.533;   48.000;81.73741
1090.28;   36.500;  -22.333;   52.167;78.97092
1090.83;   31.967;  -22.667;   48.533;76.73221
1091.37;   32.267;  -24.000;   44.067;82.66405
1091.92;   26.633;  -17.200;   54.033;61.53486
1092.46;   28.433;  -19.533;   48.833;70.16090
1093.00;   22.967;  -19.100;   46.833;63.80182
1093.55;   29.100;  -23.500;   46.100;75.57471
1094.09;   27.967;  -17.867;   37.133;83.33333
1094.64;   27.833;  -20.700;   45.567;73.23944
1095.18;   33.900;  -31.467;   45.733;84.67185
1095.72;   27.767;  -21.333;   45.267;73.72372
1096.27;   23.100;  -22.367;   38.033;75.27594
1096.81;   23.667;  -23.667;   39.733;74.65825
1097.35;   19.733;  -26.733;   43.833;65.84790
1097.90;   14.567;  -18.800;   38.300;58.43549
1098.44;   22.100;  -24.600;   37.967;74.64038
1098.99;   18.433;  -17.233;   41.333;60.89926
1099.53;   19.933;  -20.733;   46.200;60.75697
1100.07;   13.200;  -23.533;   35.267;62.47166

