
Integration time [ms]:   2.000
Averaging Nr. [scans]: 30
Smoothing Nr. [pixels]: 0
Data measured with spectrometer [name]: 1601059U1
Wave   ;Sample   ;Dark     ;Reference;Transmittance
[nm]   ;[counts] ;[counts] ;[counts] ;[%]

 200.09;   12.051;    2.274;   11.825;102.35916
 200.69;   19.827;    0.920;   31.491;61.84694
 201.30;   18.569;    2.380;   18.007;103.59537
 201.90;   23.042;   -2.748;   22.688;101.39008
 202.50;   20.321;    1.610;    1.677; 0.00000
 203.10;   18.467;   -1.749;   19.416;95.51361
 203.71;   16.532;    0.350;   17.594;93.84341
 204.31;   17.077;   -5.883;   17.688;97.40655
 204.91;   13.137;   -2.485;   14.922;89.74620
 205.51;   25.036;   -5.684;   21.139;114.53069
 206.12;   21.224;   -3.652;   21.338;99.54427
 206.72;   24.334;    1.514;   20.210;122.06020
 207.32;   21.131;   -0.685;   21.587;97.95217
 207.92;   21.837;   -1.285;   15.755;135.69021
 208.53;   18.614;   -2.218;   16.466;111.49548
 209.13;   22.361;   -0.183;   21.257;105.15251
 209.73;   16.359;    1.222;   27.958;56.61698
 210.33;   22.910;   -1.444;   25.085;91.80126
 210.94;   24.195;   -1.120;   14.325;163.90847
 211.54;   21.332;    1.654;   24.834;84.89105
 212.14;   22.563;    1.118;   25.580;87.66788
 212.74;   20.148;    3.748;   18.575;110.61143
 213.34;   21.185;    0.185;   18.985;111.70061
 213.95;   17.958;   -4.354;   23.629;79.73457
 214.55;   17.811;   -0.115;   25.561;69.81579
 215.15;   17.239;    2.715;   16.245;107.34556
 215.75;   17.368;    4.146;   14.518;127.47761
 216.35;   23.311;   -0.112;   31.476;74.15051
 216.96;   25.256;    0.880;   17.323;148.24354
 217.56;   21.230;   -6.086;   14.506;132.65351
 218.16;   18.392;   -4.814;   17.659;103.25760
 218.76;   23.578;   -2.214;   27.434;86.99497
 219.36;   19.686;   -2.651;   17.785;109.30503
 219.97;   19.968;   -0.121;   14.993;132.91927
 220.57;   19.651;   -2.160;   10.134;177.41865
 221.17;   16.567;    0.523;   32.655;49.93106
 221.77;   24.745;    0.981;   21.621;115.13472
 222.37;   23.213;   -1.346;   28.624;81.94748
 222.97;   10.712;    0.947;   16.262;63.75666
 223.58;   21.319;    3.514;   18.778;116.64295
 224.18;   15.642;   -1.151;   23.899;67.03823
 224.78;   17.713;   -4.746;   27.349;69.97686
 225.38;   17.200;    1.617;   23.483;71.26589
 225.98;   21.709;   -3.518;   17.307;121.13883
 226.58;   13.177;   -8.417;   20.821;73.85387
 227.19;   20.462;    0.883;   22.798;89.33797
 227.79;   16.970;    3.185;   17.862;93.92120
 228.39;   28.426;    0.282;   17.894;159.79583
 228.99;   16.793;   -3.656;   19.370;88.80865
 229.59;   19.938;   -4.784;   24.703;83.84060
 230.19;   21.887;   -2.118;   14.634;143.29075
 230.79;   14.875;   -6.615;   25.522;66.87124
 231.40;   13.719;   -8.049;   21.660;73.26905
 232.00;   21.058;    2.917;   18.961;113.06642
 232.60;   20.950;   -0.453;   17.022;122.47973
 233.20;   19.568;    0.055;   26.788;72.99453
 233.80;   23.175;   -2.950;   19.024;118.89160
 234.40;   17.665;   -3.550;   24.560;75.47166
 235.00;   22.043;   -7.717;   13.488;140.34624
 235.60;   18.867;   -4.580;   27.915;72.15816
 236.21;   19.270;   -2.048;   27.121;73.08375
 236.81;   16.902;    2.017;   22.981;71.00286
 237.41;   21.535;   -3.148;   16.098;128.25039
 238.01;   21.440;   -2.421;   18.727;112.82888
 238.61;   21.639;   -0.320;   17.003;126.76780
 239.21;   17.671;   -4.880;   24.902;75.71978
 239.81;   22.875;   -2.084;   16.632;133.35833
 240.41;   16.570;   -0.648;   22.995;72.82335
 241.01;   21.765;   -3.788;   19.206;111.12953
 241.62;   15.427;   -6.881;   19.532;84.45849
 242.22;   17.610;   -5.214;   21.978;83.93753
 242.82;   11.756;   -2.219;   16.607;74.23029
 243.42;   17.122;   -0.148;   25.006;68.65602
 244.02;   22.929;    2.452;   26.963;83.54116
 244.62;   17.448;   -2.552;   23.583;76.52744
 245.22;   23.654;    5.921;   23.506;100.83868
 245.82;   15.591;    0.215;   13.697;114.04902
 246.42;   21.775;    5.186;   21.305;102.91192
 247.02;   22.127;   -2.878;   25.789;87.22783
 247.62;   19.789;   -2.615;   25.114;80.79506
 248.22;   13.035;   -1.719;   16.591;80.57999
 248.82;   23.944;   -1.347;   21.278;111.78156
 249.43;   20.249;    5.477;   11.151;260.34039
 250.03;   27.475;   -0.648;   26.422;103.89211
 250.63;   15.562;    2.616;   15.040;104.20344
 251.23;   10.248;    0.987;   25.388;37.95499
 251.83;   20.039;   -0.486;   15.136;131.38760
 252.43;   18.224;    3.024;   29.925;56.50472
 253.03;   15.347;   -5.544;   32.588;54.78586
 253.63;   21.584;   -0.517;   14.979;142.62698
 254.23;   20.522;    2.421;   20.037;102.75294
 254.83;   23.586;    1.622;   34.190;67.44182
 255.43;   15.985;   -0.984;   12.629;124.65392
 256.03;   14.297;    0.714;   15.139;94.15825
 256.63;   20.479;   -4.750;   20.719;99.05570
 257.23;   20.698;    0.158;   27.307;75.65513
 257.83;   22.722;   -1.613;   25.845;88.62657
 258.43;    9.374;   -0.585;   18.617;51.86409
 259.03;   14.639;   -1.188;   21.205;70.68024
 259.63;   20.866;   -2.712;   28.815;74.78649
 260.23;   20.856;   -2.014;   22.428;93.56833
 260.83;   21.095;   -3.883;   20.065;104.30141
 261.43;   12.433;    0.152;   24.692;50.04266
 262.03;   25.046;   -7.175;   30.381;85.79392
 262.63;   14.286;    1.280;   15.561;91.06928
 263.23;   16.071;    0.216;   13.362;120.61283
 263.83;   20.896;   -7.243;   28.751;78.17722
 264.43;   27.034;    2.383;   18.266;155.20287
 265.03;   20.363;   -1.715;   19.971;101.80418
 265.63;   17.373;   -0.916;   26.451;66.82780
 266.23;   21.396;   -6.151;   18.923;109.86305
 266.83;   25.122;   -5.948;   22.106;110.75061
 267.43;   16.338;   -4.686;   20.438;83.67867
 268.03;   22.773;   -5.613;   27.433;85.89774
 268.63;   15.810;   -0.017;   26.596;59.47231
 269.23;   21.427;  -10.074;   34.096;71.31836
 269.83;   22.601;    1.019;   32.464;68.63500
 270.43;   23.279;   -3.709;   31.556;76.53033
 271.03;   23.623;    1.053;   20.387;116.73690
 271.63;   23.698;   -0.484;   15.112;155.04479
 272.23;   23.533;    0.315;   16.093;147.15388
 272.83;   24.433;    0.181;   20.693;118.23418
 273.43;   21.369;   -3.443;   31.044;71.94361
 274.03;   22.132;   -6.949;   22.419;99.02258
 274.63;   21.477;   -1.547;   23.645;91.39525
 275.23;   19.127;   -5.014;   22.032;89.25923
 275.83;   21.767;   -2.513;   28.165;79.14403
 276.43;   22.779;    0.213;   19.512;116.92676
 277.02;   20.744;   -6.881;   19.911;103.10647
 277.62;   21.869;   -1.885;   22.224;98.52465
 278.22;   25.040;    2.789;   27.298;90.78753
 278.82;   20.587;   -5.584;   25.726;83.58475
 279.42;   20.730;   -3.149;   24.221;87.24462
 280.02;   22.868;   -0.408;   29.595;77.57982
 280.62;   14.170;    1.221;   28.819;46.92037
 281.22;   26.362;   -8.380;   29.980;90.56723
 281.82;   21.186;   -5.083;   21.510;98.78187
 282.42;   26.307;   -5.779;   22.922;111.79437
 283.02;   21.702;   -1.713;   27.429;80.34687
 283.62;   21.214;   -0.411;   25.363;83.90211
 284.22;   18.505;   -5.755;   20.930;90.91467
 284.81;   18.181;   -4.214;   27.307;71.04729
 285.41;   26.589;    0.815;   23.440;113.91611
 286.01;   27.044;   -3.845;   37.676;74.39388
 286.61;   25.284;   -4.247;   21.561;114.42778
 287.21;   26.320;   -3.516;   27.791;95.30234
 287.81;   18.650;   -4.285;   26.472;74.56691
 288.41;   25.945;   -5.480;   31.234;85.59412
 289.01;   21.351;   -6.517;   23.779;91.98534
 289.61;   27.901;   -7.678;   28.713;97.77008
 290.20;   23.579;   -1.083;   28.952;82.10857
 290.80;   24.990;   -0.211;   29.744;84.12942
 291.40;   24.039;  -10.449;   35.443;75.15075
 292.00;   27.471;    0.246;   25.413;108.17786
 292.60;   24.049;    1.446;   24.608;97.58964
 293.20;   33.715;    4.348;   26.975;129.78801
 293.80;   25.485;   -3.488;   25.180;101.06266
 294.40;   32.645;   -2.280;   41.893;79.06423
 294.99;   24.144;   -6.355;   27.256;90.74123
 295.59;   23.161;   -6.915;   37.874;67.15032
 296.19;   23.517;    4.044;   34.140;64.70295
 296.79;   35.022;   -0.182;   42.614;82.25988
 297.39;   28.213;    0.085;   37.192;75.80159
 297.99;   29.830;   -5.886;   35.906;85.46125
 298.59;   31.470;   -5.785;   35.114;91.09092
 299.18;   27.441;   -9.092;   24.762;107.91386
 299.78;   31.793;   -7.720;   35.586;91.24312
 300.38;   33.013;   -5.916;   38.734;87.18775
 300.98;   28.264;    0.410;   25.832;109.56354
 301.58;   28.934;   -5.622;   34.453;86.22791
 302.18;   24.693;    0.914;   34.786;70.20491
 302.77;   26.003;   -6.311;   40.802;68.58744
 303.37;   24.954;   -4.959;   17.446;133.51174
 303.97;   33.571;   -4.483;   34.887;96.65772
 304.57;   28.072;   -3.991;   33.206;86.19617
 305.17;   30.869;    1.220;   41.271;74.02824
 305.76;   29.103;    0.713;   34.616;83.73948
 306.36;   29.426;   -4.452;   31.461;94.33291
 306.96;   34.733;   -0.287;   32.395;107.15300
 307.56;   33.090;   -7.920;   30.323;107.23312
 308.16;   29.943;   -6.718;   36.048;85.72303
 308.75;   30.898;   -4.546;   37.200;84.90357
 309.35;   23.801;   -1.360;   25.546;93.51336
 309.95;   33.149;   -0.953;   33.458;99.10157
 310.55;   31.518;   -2.957;   31.582;99.81354
 311.15;   37.021;   -8.644;   43.913;86.88769
 311.74;   32.603;  -10.821;   29.999;106.38130
 312.34;   26.951;   -2.351;   37.729;73.11056
 312.94;   27.721;   -4.655;   33.694;84.42319
 313.54;   35.565;   -3.115;   34.111;103.90635
 314.13;   34.806;   -0.853;   40.469;86.29505
 314.73;   32.454;   -4.819;   36.309;90.62564
 315.33;   35.414;   -2.323;   33.312;105.89843
 315.93;   31.461;    0.214;   32.508;96.75847
 316.53;   31.811;   -6.158;   23.716;127.09814
 317.12;   29.732;   -0.513;   42.200;70.80783
 317.72;   28.537;   -3.695;   25.077;112.02785
 318.32;   33.100;   -1.352;   43.435;76.92556
 318.92;   33.318;   -0.490;   34.157;97.57858
 319.51;   33.197;   -4.189;   35.158;95.01650
 320.11;   25.967;    3.009;   36.388;68.77841
 320.71;   27.267;   -5.889;   35.945;79.25578
 321.30;   28.943;   -2.486;   38.498;76.68640
 321.90;   34.120;   -1.860;   26.239;128.04408
 322.50;   27.820;   -5.388;   30.578;92.33188
 323.10;   35.077;   -7.687;   35.273;99.54343
 323.69;   30.273;   -6.553;   47.503;68.12568
 324.29;   32.714;   -5.951;   43.758;77.78214
 324.89;   34.443;   -9.553;   31.998;105.88454
 325.49;   31.513;   -4.656;   29.537;105.78033
 326.08;   26.042;   -9.953;   46.942;63.26542
 326.68;   35.558;    1.175;   34.175;104.19130
 327.28;   34.607;   -7.593;   32.747;104.60887
 327.87;   37.339;   -1.491;   38.881;96.17930
 328.47;   34.514;   -6.557;   35.161;98.44856
 329.07;   37.797;   -5.920;   43.114;89.15601
 329.67;   34.312;    4.643;   46.822;70.34027
 330.26;   37.366;   -2.721;   55.237;69.16710
 330.86;   31.102;   -4.195;   47.212;68.66178
 331.46;   38.625;   -0.263;   37.176;103.87078
 332.05;   43.053;    0.743;   55.713;76.96861
 332.65;   49.517;   -9.483;   61.145;83.53635
 333.25;   42.455;   -5.391;   57.694;75.84430
 333.84;   56.195;   -3.992;   70.137;81.19225
 334.44;   49.382;   -0.658;   71.711;69.14490
 335.04;   58.918;   -3.330;   74.352;80.13167
 335.63;   63.077;    1.468;   75.330;83.41090
 336.23;   57.845;   -4.532;   90.994;65.29863
 336.83;   72.752;    0.059;   81.523;89.23329
 337.42;   70.313;   -5.100;   94.585;75.65094
 338.02;   73.718;   -1.842;   96.675;76.69685
 338.62;   82.673;   -5.639;  103.337;81.03782
 339.21;   76.344;   -4.915;   92.388;83.51148
 339.81;   91.130;   -6.738;  115.299;80.19520
 340.41;   83.592;   -6.052;  101.029;83.71635
 341.00;   81.120;    1.652;  107.976;74.74108
 341.60;   76.932;   -3.445;   99.042;78.42716
 342.20;   78.388;   -6.090;   74.079;105.37491
 342.79;   72.965;    0.147;   74.364;98.11518
 343.39;   62.689;   -6.507;   81.010;79.06527
 343.98;   59.622;   -4.849;   61.590;97.03782
 344.58;   57.874;   -3.514;   62.999;92.29576
 345.18;   54.260;   -5.178;   60.549;90.43260
 345.77;   64.954;   -0.040;   70.846;91.68768
 346.37;   56.014;   -5.709;   65.380;86.82506
 346.97;   57.075;   -4.672;   81.635;71.54336
 347.56;   52.466;   -2.209;   74.065;71.68228
 348.16;   65.928;   -9.068;   92.817;73.60883
 348.75;   70.876;   -2.240;   87.352;81.60994
 349.35;   74.533;    1.524;   90.206;82.32622
 349.95;   75.144;   -4.185;   81.073;93.04623
 350.54;   68.670;   -4.852;   67.915;101.03729
 351.14;   56.252;    0.183;   62.778;89.57513
 351.73;   53.611;   -3.916;   61.571;87.84556
 352.33;   64.396;   -2.449;   69.614;92.75896
 352.93;   76.837;   -3.716;   87.080;88.71891
 353.52;   81.005;   -1.186;   89.321;90.81218
 354.12;   75.280;   -4.710;  100.273;76.19280
 354.71;   65.393;   -1.014;   79.892;82.07975
 355.31;   53.973;   -5.841;   67.406;81.66023
 355.90;   59.256;   -5.013;   62.813;94.75460
 356.50;   57.334;   -8.684;   63.034;92.05197
 357.10;   55.458;   -5.750;   64.363;87.29882
 357.69;   59.414;   -7.139;   66.870;89.92609
 358.29;   57.987;  -12.644;   66.706;89.01278
 358.88;   49.728;   -8.614;   60.581;84.31504
 359.48;   43.791;   -2.578;   57.809;76.78655
 360.07;   47.177;   -4.642;   63.984;75.50874
 360.67;   48.045;   -8.211;   54.392;89.86170
 361.26;   46.262;    2.091;   55.770;82.28846
 361.86;   44.285;   -4.549;   52.887;85.02359
 362.46;   56.183;   -6.679;   59.829;94.51710
 363.05;   52.182;    0.919;   58.531;88.97980
 363.65;   49.935;   -1.537;   62.509;80.36669
 364.24;   52.924;  -11.181;   59.486;90.71479
 364.84;   56.474;   -3.408;   68.404;83.38816
 365.43;   52.687;    1.690;   63.623;82.34218
 366.03;   59.900;   -4.177;   75.256;80.66807
 366.62;   57.639;   -9.380;   68.168;86.42336
 367.22;   59.580;   -6.410;   81.973;74.66311
 367.81;   67.949;    0.325;   81.744;83.05680
 368.41;   63.185;  -10.010;   79.366;81.89544
 369.00;   65.279;   -4.545;   79.134;83.44288
 369.60;   59.335;   -8.015;   83.099;73.91799
 370.19;   48.523;   -3.681;   81.697;61.14493
 370.79;   45.236;   -6.949;   84.697;56.94240
 371.38;   41.628;   -8.284;   78.833;57.29327
 371.98;   49.670;   -5.213;   83.420;61.92141
 372.57;   45.468;   -3.552;   77.217;60.69139
 373.17;   50.359;  -11.485;   74.854;71.62872
 373.76;   42.324;  -10.387;   78.714;59.15873
 374.36;   50.168;   -6.476;   84.871;62.00992
 374.95;   50.665;  -10.219;   71.297;74.68947
 375.55;   45.685;   -7.482;   81.420;59.80403
 376.14;   49.307;   -4.619;   78.352;64.99411
 376.74;   43.365;   -8.750;   84.387;55.95518
 377.33;   47.701;   -5.412;   88.681;56.44768
 377.93;   48.315;   -8.150;   85.299;60.42267
 378.52;   47.499;   -4.014;   90.652;54.41568
 379.11;   46.134;   -2.412;   96.473;49.09354
 379.71;   38.739;   -8.284;   92.453;46.67928
 380.30;   42.002;  -12.973;  100.027;48.65006
 380.90;   49.376;   -6.290;   84.176;61.53238
 381.49;   48.365;   -0.714;  100.877;48.31054
 382.09;   47.907;   -2.852;   93.910;52.45718
 382.68;   48.048;  -10.742;  106.421;50.17767
 383.28;   50.353;    0.152;  109.368;45.96457
 383.87;   47.520;   -2.545;  114.024;42.94831
 384.46;   46.393;    1.749;  112.235;40.40664
 385.06;   46.333;   -6.009;  122.540;40.71772
 385.65;   51.206;  -10.587;  125.446;45.42558
 386.25;   49.197;   -1.072;  135.849;36.71423
 386.84;   53.771;  -11.880;  139.970;43.23407
 387.44;   57.313;  -10.216;  150.060;42.13258
 388.03;   57.037;   -9.380;  146.070;42.72602
 388.62;   62.325;   -7.708;  164.566;40.65222
 389.22;   62.671;   -6.785;  161.105;41.37021
 389.81;   73.067;   -4.474;  173.846;43.48433
 390.41;   67.249;   -0.312;  167.096;40.35723
 391.00;   74.148;   -5.212;  164.006;46.89797
 391.59;   67.921;   -7.577;  177.639;40.76209
 392.19;   70.855;   -9.476;  176.345;43.23008
 392.78;   79.205;   -3.981;  172.620;47.10396
 393.38;   76.339;   -3.646;  195.351;40.19378
 393.97;   78.393;    3.619;  191.084;39.88682
 394.56;   91.377;   -6.379;  203.869;46.49541
 395.16;   76.923;   -1.788;  182.433;42.72640
 395.75;   73.383;   -2.470;  213.891;35.05845
 396.34;   65.806;   -4.178;  214.791;31.96061
 396.94;   80.546;   -9.515;  220.352;39.17952
 397.53;   90.159;   -1.416;  231.819;39.26307
 398.13;   95.369;   -8.045;  241.737;41.40182
 398.72;  104.296;   -1.083;  247.481;42.39511
 399.31;  103.560;   -1.978;  262.107;39.96356
 399.91;   96.544;   -6.980;  266.419;37.86558
 400.50;   86.752;   -5.441;  281.190;32.16436
 401.09;   90.023;   -3.281;  280.497;32.87931
 401.69;   98.910;  -15.045;  303.603;35.76224
 402.28;  100.424;   -5.011;  313.668;33.08509
 402.87;  112.358;   -5.115;  325.869;35.49218
 403.47;  108.977;   -8.709;  339.784;33.76985
 404.06;  101.247;   -6.178;  338.890;31.13158
 404.65;   79.683;   -5.079;  359.329;23.25996
 405.25;   63.725;   -6.508;  374.199;18.44811
 405.84;   43.405;  -12.745;  388.168;14.00538
 406.43;   40.782;   -5.147;  386.556;11.72535
 407.03;   31.152;  -10.741;  427.256; 9.56465
 407.62;   36.525;   -9.076;  429.041;10.40840
 408.21;   32.354;   -5.577;  455.706; 8.22302
 408.81;   34.077;   -6.703;  477.164; 8.42804
 409.40;   36.358;   -3.508;  482.233; 8.20740
 409.99;   26.596;   -5.476;  511.270; 6.20638
 410.58;   30.789;   -4.441;  525.927; 6.64269
 411.18;   34.262;    0.259;  560.453; 6.06982
 411.77;   38.171;  -10.075;  569.991; 8.31747
 412.36;   33.213;   -6.974;  602.155; 6.59739
 412.96;   29.728;  -10.441;  615.112; 6.42130
 413.55;   34.428;   -9.638;  628.843; 6.90183
 414.14;   31.960;   -4.675;  625.255; 5.81561
 414.73;   22.976;   -9.873;  686.785; 4.71520
 415.33;   40.414;   -5.475;  659.905; 6.89656
 415.92;   36.565;   -7.837;  720.547; 6.09586
 416.51;   30.334;   -3.775;  712.521; 4.76186
 417.11;   31.747;   -4.574;  732.830; 4.92549
 417.70;   23.751;   -4.142;  738.250; 3.75727
 418.29;   26.237;   -2.877;  767.452; 3.77947
 418.88;   34.983;   -6.137;  784.999; 5.19761
 419.48;   32.517;   -4.471;  814.549; 4.51620
 420.07;   23.289;   -5.081;  806.655; 3.49497
 420.66;   29.374;   -0.138;  860.285; 3.42994
 421.25;   29.602;   -2.874;  879.369; 3.68105
 421.85;   28.153;   -9.435;  922.070; 4.03517
 422.44;   24.577;  -11.403;  922.064; 3.85450
 423.03;   32.225;   -6.173;  947.264; 4.02736
 423.62;   31.902;   -6.772;  975.534; 3.93708
 424.21;   31.578;   -7.370; 1003.773; 3.85189
 424.81;   32.277;   -1.039; 1014.599; 3.28026
 425.40;   35.057;   -7.203; 1108.548; 3.78757
 425.99;   35.105;   -0.746; 1070.184; 3.34766
 426.58;   35.856;   -8.637; 1164.400; 3.79298
 427.18;   27.296;   -7.212; 1167.888; 2.93659
 427.77;   28.227;   -6.105; 1231.279; 2.77455
 428.36;   30.898;   -9.011; 1254.825; 3.15776
 428.95;   27.617;  -11.502; 1273.139; 3.04516
 429.54;   29.632;   -3.604; 1342.130; 2.46975
 430.14;   29.201;   -9.773; 1354.586; 2.85658
 430.73;   28.540;   -2.673; 1354.246; 2.30027
 431.32;   26.319;   -7.369; 1476.136; 2.27083
 431.91;   33.987;   -3.743; 1417.989; 2.65378
 432.50;   29.471;   -3.468; 1491.047; 2.20401
 433.10;   28.363;   -5.033; 1501.398; 2.21690
 433.69;   34.411;   -2.207; 1508.124; 2.42451
 434.28;   32.008;    0.091; 1481.620; 2.15434
 434.87;   37.437;   -4.704; 1634.715; 2.57048
 435.46;   30.052;   -4.104; 1600.505; 2.12863
 436.05;   40.691;   -6.771; 1662.606; 2.84312
 436.65;   31.497;   -2.638; 1683.707; 2.02422
 437.24;   31.214;   -7.830; 1681.265; 2.31159
 437.83;   36.829;   -6.964; 1671.146; 2.60964
 438.42;   38.530;  -12.699; 1708.346; 2.97665
 439.01;   29.523;  -10.805; 1695.517; 2.36346
 439.60;   31.391;   -8.132; 1745.878; 2.25330
 440.19;   35.983;   -8.173; 1789.909; 2.45573
 440.79;   40.927;   -9.299; 1857.217; 2.69089
 441.38;   41.142;  -10.602; 1850.550; 2.78020
 441.97;   41.456;   -3.235; 1837.732; 2.42761
 442.56;   42.764;   -8.008; 1901.126; 2.65943
 443.15;   41.878;   -6.574; 1884.124; 2.56262
 443.74;   37.247;   -5.606; 1936.570; 2.20646
 444.33;   44.449;   -8.639; 1977.401; 2.67308
 444.93;   37.602;   -2.798; 1982.131; 2.03537
 445.52;   44.973;   -9.203; 2016.494; 2.67444
 446.11;   42.026;  -13.437; 2057.787; 2.67776
 446.70;   52.300;   -5.065; 2105.766; 2.71767
 447.29;   48.363;  -10.597; 2118.888; 2.76875
 447.88;   60.839;   -6.738; 2222.521; 3.03136
 448.47;   60.710;   -7.132; 2225.296; 3.03894
 449.06;   95.425;   -6.402; 2303.704; 4.40791
 449.65;  155.363;   -7.158; 2364.159; 6.85361
 450.24;  369.371;   -4.533; 2439.878;15.29629
 450.84;  748.821;   -1.105; 2431.611;30.82668
 451.43; 1133.999;   -5.269; 2466.228;46.09627
 452.02; 1383.593;  -13.859; 2555.006;54.39959
 452.61; 1450.723;   -6.035; 2530.590;57.42896
 453.20; 1517.428;  -11.368; 2642.725;57.60147
 453.79; 1521.593;   -5.699; 2795.142;54.52976
 454.38; 1338.714;  -11.036; 2825.651;47.58191
 454.97; 1073.433;   -6.727; 2910.132;37.03163
 455.56;  842.439;  -11.337; 2888.705;29.44010
 456.15;  736.500;   -9.165; 3075.391;24.17413
 456.74;  669.979;   -4.339; 2983.772;22.56670
 457.33;  759.666;   -6.566; 3116.277;24.53634
 457.92;  916.015;  -17.132; 3147.048;29.49095
 458.51; 1237.994;   -1.997; 3225.815;38.41583
 459.10; 1599.404;   -2.232; 3172.937;50.44257
 459.69; 2013.052;   -5.462; 3292.166;61.21109
 460.28; 2189.481;   -8.037; 3356.801;65.30829
 460.88; 2090.001;   -9.162; 3417.823;61.25393
 461.47; 1820.869;   -6.906; 3453.109;52.82565
 462.06; 1552.542;   -8.734; 3538.023;44.01982
 462.65; 1413.644;   -4.060; 3661.843;38.67270
 463.24; 1373.684;   -8.599; 3710.895;37.16321
 463.83; 1392.785;   -2.201; 3673.720;37.94930
 464.42; 1590.075;   -3.693; 3822.504;41.65410
 465.01; 1871.851;  -10.569; 3843.614;48.84097
 465.60; 2275.832;   -8.936; 3937.962;57.88770
 466.19; 2753.748;   -5.204; 4086.535;67.42738
 466.78; 3079.076;   -7.961; 4116.362;74.84955
 467.37; 3235.546;  -14.097; 4208.934;76.95049
 467.96; 3149.569;   -8.632; 4273.831;73.74731
 468.55; 2941.541;  -10.922; 4333.169;67.96503
 469.14; 2796.024;   -6.061; 4411.185;63.43513
 469.73; 2726.174;   -6.028; 4581.497;59.55721
 470.32; 2749.297;   -7.359; 4669.876;58.93773
 470.91; 2906.528;   -9.395; 4791.522;60.73680
 471.50; 3176.680;   -1.999; 4906.392;64.76011
 472.09; 3579.398;   -3.164; 5054.452;70.83499
 472.67; 3898.160;  -10.395; 5180.191;75.30084
 473.26; 4269.249;   -6.396; 5340.213;79.96929
 473.85; 4428.649;   -1.396; 5471.446;80.94597
 474.44; 4422.146;   -5.928; 5711.657;77.44658
 475.03; 4271.028;   -1.295; 5846.655;73.05677
 475.62; 4077.174;   -2.937; 6023.144;67.70754
 476.21; 3909.064;   -3.493; 6222.884;62.83842
 476.80; 3841.597;   -7.363; 6377.369;60.28382
 477.39; 3859.064;   -6.963; 6509.277;59.32911
 477.98; 4041.442;  -13.991; 6771.735;59.76417
 478.57; 4364.747;   -9.060; 7043.505;62.01726
 479.16; 4745.779;   -7.460; 7118.207;66.70588
 479.75; 5273.434;   -7.266; 7334.349;71.92832
 480.34; 5778.087;   -5.864; 7516.458;76.89050
 480.93; 6231.494;  -10.490; 7711.179;80.83724
 481.52; 6587.631;   -7.596; 7914.902;83.24680
 482.11; 6744.072;   -9.897; 8161.268;82.65613
 482.69; 6643.612;   -1.559; 8273.291;80.30563
 483.28; 6623.596;   -3.495; 8596.944;77.05526
 483.87; 6421.397;   -5.225; 8739.534;73.49112
 484.46; 6370.369;   -9.689; 8968.017;71.06557
 485.05; 6327.563;   -6.161; 9023.778;70.14139
 485.64; 6504.067;   -6.934; 9281.001;70.10170
 486.23; 6724.803;   -4.297; 9381.479;71.69467
 486.82; 7050.078;   -3.825; 9568.483;73.69073
 487.41; 7548.440;   -2.833; 9811.984;76.93748
 488.00; 7990.812;   -4.357; 9990.356;79.99399
 488.58; 8301.939;   -4.958;10040.656;82.69178
 489.17; 8548.557;   -4.360;10173.335;84.03589
 489.76; 8777.215;   -3.428;10477.521;83.77717
 490.35; 8752.667;   -8.089;10694.920;81.85321
 490.94; 8581.592;   -8.139;10733.656;79.96551
 491.53; 8373.006;   -4.756;10904.321;76.79625
 492.12; 8185.774;  -13.661;11015.722;74.34173
 492.70; 8008.259;   -3.194;11106.866;72.10990
 493.29; 7960.527;   -9.226;11140.080;71.48205
 493.88; 8143.784;   -5.826;11335.392;71.85833
 494.47; 8355.586;  -10.430;11508.916;72.62579
 495.06; 8664.415;   -9.958;11625.345;74.55219
 495.65; 8951.273;   -4.493;11655.847;76.80536
 496.24; 9359.520;   -7.160;11746.506;79.69156
 496.82; 9764.108;   -7.962;11826.639;82.57203
 497.41;10119.876;   -9.922;12025.633;84.16561
 498.00;10379.361;   -2.434;12224.942;84.90616
 498.59;10517.198;  -10.691;12360.757;85.09828
 499.18;10404.330;   -3.765;12351.371;84.24104
 499.77;10292.368;   -2.796;12437.331;82.75771
 500.35;10187.608;  -15.932;12590.157;80.94136
 500.94;10010.023;   -6.257;12624.183;79.30270
 501.53;10033.415;   -8.089;12940.743;77.54757
 502.12; 9961.344;   -9.327;12937.009;77.01538
 502.71;10069.196;   -7.564;13084.954;76.96579
 503.29;10245.753;   -8.793;13284.656;77.13984
 503.88;10510.507;  -12.266;13372.476;78.61767
 504.47;10677.688;   -8.459;13461.887;79.33090
 505.06;11025.314;   -5.736;13653.060;80.76152
 505.65;11394.986;  -11.659;13940.056;81.75801
 506.23;11655.983;   -8.094;14026.177;83.11138
 506.82;11923.453;   -7.626;14318.956;83.27931
 507.41;11994.109;   -5.922;14412.133;83.22919
 508.00;11888.233;   -7.525;14340.955;82.90605
 508.58;12177.071;   -5.160;14799.975;82.28382
 509.17;12160.643;  -15.392;14915.093;81.55150
 509.76;12329.139;   -9.359;15160.098;81.33777
 510.35;12365.418;   -6.355;15320.088;80.72175
 510.93;12554.003;   -5.624;15569.575;80.63863
 511.52;12838.335;  -16.593;15862.788;80.95358
 512.11;12948.341;  -14.792;15777.920;82.08300
 512.70;13231.165;   -8.825;16072.865;82.32959
 513.28;13506.212;  -12.396;16237.176;83.19362
 513.87;13922.500;   -9.822;16552.711;84.11951
 514.46;14336.843;  -10.456;16847.383;85.10758
 515.05;14528.476;   -5.386;16958.331;85.67617
 515.63;14801.629;   -7.666;17203.481;86.04478
 516.22;14966.462;  -11.699;17373.748;86.15344
 516.81;14970.269;   -8.162;17414.746;85.96975
 517.39;14993.609;   -9.224;17559.643;85.39442
 517.98;15185.631;   -7.354;17859.389;85.03500
 518.57;15353.718;  -14.188;18180.622;84.46313
 519.16;15517.739;   -4.259;18403.864;84.32146
 519.74;15594.814;  -10.084;18537.225;84.13565
 520.33;15704.876;  -12.295;18669.936;84.12898
 520.92;15931.278;  -10.758;18981.149;83.94121
 521.50;16143.725;  -10.156;19097.631;84.54082
 522.09;16687.047;   -7.726;19562.022;85.30908
 522.68;16806.311;   -7.327;19559.118;85.93098
 523.26;17004.877;   -5.987;19739.473;86.15076
 523.85;17242.484;  -14.853;19970.989;86.34781
 524.44;17530.429;  -10.027;20237.836;86.62868
 525.03;17532.349;  -13.063;20295.713;86.39325
 525.61;17558.469;   -9.392;20520.127;85.57366
 526.20;17555.800;  -15.161;20655.832;85.00298
 526.79;17497.524;   -2.752;20794.938;84.14529
 527.37;17263.321;   -8.460;20785.562;83.06128
 527.96;17270.515;  -11.719;21071.650;81.97093
 528.54;17305.541;  -11.125;21231.146;81.51984
 529.13;17227.544;  -11.088;21335.323;80.75658
 529.72;17118.345;  -12.128;21166.867;80.88426
 530.30;17325.480;   -1.823;21406.312;80.93794
 530.89;17550.862;   -8.292;21589.845;81.29939
 531.48;17569.662;   -9.686;21417.717;82.04143
 532.06;17815.242;   -5.253;21444.109;83.08170
 532.65;18311.392;   -4.390;21803.348;83.98754
 533.24;18673.267;   -5.322;21951.620;85.06918
 533.82;18867.730;  -12.690;22031.032;85.64987
 534.41;18863.395;  -14.689;21881.893;86.21475
 534.99;18976.303;   -9.094;22013.727;86.20784
 535.58;19187.137;   -9.522;22209.482;86.39748
 536.17;19080.163;   -6.089;22220.916;85.86965
 536.75;19007.773;   -8.497;22321.032;85.16198
 537.34;18880.961;  -13.082;22382.682;84.36436
 537.92;18713.368;   -6.093;22459.313;83.32572
 538.51;18705.098;   -7.521;22716.964;82.34562
 539.10;18506.744;   -3.624;22696.574;81.54276
 539.68;18441.080;   -9.089;22757.670;81.03994
 540.27;18413.740;    1.383;22891.634;80.43755
 540.85;18458.767;   -0.556;22975.228;80.34252
 541.44;18584.202;    4.814;23134.332;80.32760
 542.03;18803.195;    2.910;23321.935;80.62209
 542.61;19158.811;    1.505;23523.834;81.44307
 543.20;19505.804;   -4.885;23747.455;82.14217
 543.78;19870.151;    1.043;23892.624;83.16364
 544.37;20267.546;    3.185;24199.417;83.75007
 544.95;20639.058;    0.211;24399.923;84.58644
 545.54;20736.559;   -2.888;24287.671;85.38069
 546.12;21267.205;   -7.721;24750.430;85.93100
 546.71;21623.033;   -5.221;24965.362;86.61493
 547.30;21957.888;   -0.724;25360.886;86.58209
 547.88;22364.871;   -6.152;25986.263;86.06750
 548.47;22527.335;   -8.988;26161.434;86.11372
 549.05;22768.375;   -6.990;26488.552;85.95923
 549.64;22931.689;   -4.229;26918.129;85.19283
 550.22;23176.964;   -6.624;27401.916;84.58527
 550.81;23235.555;   -8.760;27764.037;83.69454
 551.39;23260.518;   -2.024;27981.165;83.13042
 551.98;23506.540;  -10.156;28510.388;82.45529
 552.56;23690.264;  -10.520;28844.956;82.13617
 553.15;23685.881;  -11.658;29000.236;81.68215
 553.73;23777.068;  -15.650;29254.066;81.28783
 554.32;24290.700;   -6.388;29885.103;81.28429
 554.90;24504.383;   -6.255;30191.257;81.16774
 555.49;24606.695;   -5.623;30324.201;81.14890
 556.07;24995.002;   -8.019;30617.591;81.64089
 556.66;25437.820;   -5.355;30924.519;82.26084
 557.24;25913.265;   -9.059;31427.165;82.46004
 557.83;26246.624;   -7.595;31581.318;83.11213
 558.41;26739.713;   -6.252;31839.252;83.98663
 559.00;27049.761;  -12.055;32150.710;84.14020
 559.58;27737.214;  -10.487;32716.843;84.78449
 560.17;28238.587;   -6.519;33089.184;85.34373
 560.75;28392.435;  -10.822;33225.809;85.45769
 561.34;28812.912;   -7.590;33730.589;85.42400
 561.92;29219.186;   -9.262;34124.733;85.62856
 562.50;29203.230;   -5.089;34376.024;84.95455
 563.09;29270.958;  -11.292;34567.008;84.68389
 563.67;29996.643;  -11.328;35462.836;84.59106
 564.26;29943.089;  -13.323;35539.300;84.25936
 564.84;29761.381;  -11.960;35599.213;83.60674
 565.43;29930.574;  -16.549;36192.041;82.70723
 566.01;29776.260;  -10.386;36225.711;82.20158
 566.60;29991.770;   -4.295;36796.468;81.50936
 567.18;30019.904;   -8.955;36959.040;81.22934
 567.76;30230.541;   -8.725;37288.446;81.07657
 568.35;30037.787;  -10.324;37214.629;80.72034
 568.93;30147.095;   -3.955;37241.918;80.95138
 569.52;30077.549;  -12.527;37226.269;80.80303
 570.10;30548.827;  -11.490;37685.612;81.06808
 570.68;30960.837;  -10.256;37898.148;81.69981
 571.27;31024.450;  -11.419;37755.956;82.17640
 571.85;31423.822;   -7.215;37899.347;82.91714
 572.44;31706.965;  -10.753;37933.279;83.59080
 573.02;32164.262;  -12.430;38232.513;84.13320
 573.60;32416.075;   -4.754;38216.250;84.82464
 574.19;32785.920;   -5.521;38421.645;85.33401
 574.77;33214.413;   -8.188;38737.429;85.74544
 575.36;33029.790;  -11.896;38349.703;86.13219
 575.94;33360.561;   -8.694;38723.664;86.15343
 576.52;33486.041;   -6.356;38671.585;86.59302
 577.11;33718.148;  -12.424;39122.070;86.19141
 577.69;33308.499;  -12.356;38695.822;86.08221
 578.27;33174.202;   -7.219;38940.924;85.19385
 578.86;33147.556;  -10.422;39067.792;84.85029
 579.44;33116.653;   -0.721;39571.545;83.68835
 580.02;32838.608;  -12.159;39254.529;83.66065
 580.61;32751.053;  -11.459;39499.790;82.91945
 581.19;32810.423;  -12.454;39724.098;82.60122
 581.77;33008.130;  -11.256;39965.991;82.59545
 582.36;32832.205;   -8.827;40014.458;82.05481
 582.94;33186.715;   -7.692;40277.211;82.39912
 583.52;33275.598;   -5.518;40600.354;81.96134
 584.11;33400.446;   -4.091;40562.530;82.34488
 584.69;33559.308;  -11.892;40748.329;82.36265
 585.27;33956.842;   -4.755;40992.158;82.83940
 585.86;33876.688;   -7.287;40683.667;83.27152
 586.44;34186.562;   -6.786;41185.783;83.00853
 587.02;34373.266;   -4.327;41106.957;83.62082
 587.61;34595.229;   -9.357;41392.843;83.58151
 588.19;34805.203;  -10.020;41549.382;83.77219
 588.77;34868.834;  -12.081;41555.723;83.91330
 589.36;35175.694;   -5.591;41966.087;83.82149
 589.94;34914.362;   -7.054;41620.133;83.89089
 590.52;35165.100;   -3.691;42021.488;83.68505
 591.10;35261.343;  -10.856;42278.950;83.40591
 591.69;35189.909;   -7.824;42181.543;83.42797
 592.27;35304.070;   -2.891;42392.984;83.27924
 592.85;35289.703;  -12.626;42415.577;83.20486
 593.43;35503.272;   -7.619;42624.228;83.29663
 594.02;35386.366;   -9.157;42448.838;83.36598
 594.60;35963.260;   -3.824;42963.312;83.70836
 595.18;36192.508;  -10.858;43104.787;83.96805
 595.76;36632.740;   -7.351;43469.834;84.27429
 596.35;36893.728;   -6.494;43581.838;84.65619
 596.93;37290.552;   -9.189;43585.738;85.55982
 597.51;37199.923;  -12.554;43274.132;85.96749
 598.09;37928.669;   -9.820;43824.207;86.55032
 598.68;38283.418;   -5.623;43987.149;87.03485
 599.26;38487.429;  -12.754;44149.125;87.17968
 599.84;39060.290;   -8.858;44633.258;87.51634
 600.42;38911.278;   -7.922;44412.572;87.61541
 601.01;39113.696;   -9.191;44642.226;87.61847
 601.59;39464.710;   -9.159;45113.068;87.48209
 602.17;39196.443;   -9.386;45063.398;86.98338
 602.75;39192.389;   -7.352;45047.299;87.00487
 603.33;39066.644;  -13.230;45329.936;86.18691
 603.92;39047.887;   -8.792;45679.004;85.48602
 604.50;38966.873;   -7.390;45945.896;84.81279
 605.08;38606.336;   -2.517;46062.839;83.81321
 605.66;38933.050;   -7.592;46571.376;83.60134
 606.24;38553.961;  -16.388;46387.743;83.11835
 606.83;38453.918;   -7.157;46489.257;82.71837
 607.41;38736.779;   -9.459;47016.599;82.39312
 607.99;38336.727;    1.810;46717.170;82.06062
 608.57;38638.820;    7.946;47001.678;82.20431
 609.15;39066.509;   18.503;47394.538;82.42143
 609.73;39102.663;   16.406;47311.903;82.64266
 610.32;39547.780;   20.638;47546.332;83.17005
 610.90;39758.194;   10.410;47576.912;83.56255
 611.48;40066.525;   12.013;47774.696;83.86152
 612.06;40279.471;   -2.123;47793.490;84.27885
 612.64;40429.545;    1.141;47437.824;85.22603
 613.22;40812.923;    0.389;47732.510;85.50329
 613.80;41005.346;   -8.325;47522.180;86.28916
 614.39;40671.841;   -2.285;47028.617;86.48383
 614.97;40863.656;   -8.953;47168.723;86.63549
 615.55;40414.243;  -12.217;46753.655;86.44436
 616.13;40203.105;   -8.884;46383.128;86.67869
 616.71;39886.216;  -10.648;46047.021;86.62372
 617.29;39880.484;   -5.049;46174.871;86.36986
 617.87;39329.199;   -1.350;45776.960;85.91525
 618.45;39046.139;   -8.422;45575.713;85.67578
 619.04;38940.904;   -1.519;45664.397;85.27678
 619.62;38651.980;  -12.663;45531.015;84.89574
 620.20;38555.193;   -3.516;45648.492;84.46224
 620.78;38629.845;  -10.350;45776.086;84.39223
 621.36;38149.012;   -9.420;45337.237;84.14828
 621.94;38094.318;   -7.927;45241.400;84.20511
 622.52;37894.853;   -9.399;45084.493;84.05629
 623.10;38901.550;  -10.740;46296.217;84.03120
 623.68;39561.621;   -1.962;47074.364;84.04136
 624.26;39557.056;   -7.965;46954.972;84.24733
 624.84;40175.766;   -9.288;47532.337;84.52604
 625.42;40554.769;   -7.699;47621.405;85.16320
 626.01;40647.489;   -6.764;47643.264;85.31842
 626.59;41004.254;  -10.313;47778.708;85.82425
 627.17;41322.997;  -11.638;47810.633;86.43386
 627.75;41349.941;  -11.961;47903.397;86.32285
 628.33;41809.138;  -12.290;48183.698;86.77367
 628.91;41983.496;   -5.494;48202.236;87.10012
 629.49;42118.684;  -13.363;48327.685;87.15584
 630.07;42023.018;  -10.797;48010.227;87.53211
 630.65;42243.700;   -5.994;48203.432;87.63783
 631.23;42347.124;   -8.328;48356.651;87.57463
 631.81;42540.935;   -8.193;48444.288;87.81620
 632.39;42324.276;   -8.661;48260.162;87.70244
 632.97;42716.857;   -6.425;48770.233;87.58961
 633.55;42782.270;   -2.189;48959.240;87.38401
 634.13;42631.855;  -14.297;48930.055;87.13192
 634.71;42526.832;   -8.096;48593.933;87.51677
 635.29;42798.332;  -15.426;48911.148;87.50614
 635.87;42666.168;   -9.333;48973.449;87.12347
 636.45;42957.278;   -8.895;49158.101;87.38824
 637.03;42305.826;  -11.858;48496.364;87.23817
 637.61;42593.884;  -11.293;48904.534;87.09896
 638.19;42919.927;   -6.629;49131.232;87.35943
 638.77;42852.013;  -13.929;49039.740;87.38580
 639.35;42924.334;  -12.363;49108.298;87.41067
 639.93;43070.601;   -8.196;49208.998;87.52794
 640.51;43308.174;  -11.829;49439.670;87.60099
 641.09;43317.445;   -9.662;49495.609;87.52019
 641.67;43189.449;  -13.829;49167.449;87.84497
 642.25;43646.887;  -10.395;49690.221;87.84052
 642.83;43687.691;  -10.662;49698.127;87.90871
 643.41;43581.962;  -15.362;49683.866;87.72234
 643.99;43753.666;  -13.662;49780.672;87.89620
 644.57;43891.404;  -12.728;49990.345;87.80287
 645.14;44041.675;  -13.295;50133.584;87.85187
 645.72;43477.579;   -5.295;49673.424;87.52817
 646.30;43536.984;   -7.695;49649.696;87.69023
 646.88;44043.855;  -15.961;50223.802;87.69909
 647.46;44255.092;   -6.961;50608.241;87.44814
 648.04;43969.730;  -19.895;50270.614;87.47103
 648.62;44165.701;   -8.728;50453.153;87.54019
 649.20;44098.972;  -15.061;50515.959;87.30090
 649.78;44414.509;   -5.394;50837.332;87.36727
 650.36;44461.347;  -11.961;51018.071;87.15124
 650.94;44509.751;  -10.961;50933.510;87.39067
 651.52;44885.656;  -14.728;51307.416;87.48735
 652.09;44799.427;  -12.761;51238.255;87.43668
 652.67;44670.064;  -17.627;51029.628;87.54181
 653.25;45226.035;   -9.194;51660.301;87.54726
 653.83;45737.639;   -7.161;52192.540;87.63422
 654.41;45713.210;   -7.794;52117.312;87.71398
 654.99;46123.881;  -11.094;52547.118;87.77881
 655.57;46008.986;  -12.894;52476.791;87.67795
 656.15;45807.090;  -10.260;52127.130;87.87810
 656.72;46511.194;  -14.494;53002.803;87.75568
 657.30;46839.498;  -12.860;53127.342;88.16745
 657.88;47362.536;  -13.493;53821.148;88.00287
 658.46;47733.974;   -7.360;54219.221;88.04047
 659.04;47910.611;   -6.660;54200.060;88.39729
 659.62;48775.649;   -9.993;55024.232;88.64600
 660.20;49027.087;  -12.093;55517.405;88.31194
 660.77;49378.424;  -13.060;55662.278;88.71340
 661.35;49842.495;  -14.393;56172.217;88.73447
 661.93;50254.099;  -10.093;56590.489;88.80508
 662.51;50588.304;  -12.726;56867.795;88.96021
 663.09;50876.541;   -6.626;57137.301;89.04388
 663.67;50852.779;  -15.259;57140.774;88.99855
 664.24;51284.717;  -12.393;57425.413;89.30896
 664.82;50721.554;  -12.759;57026.352;88.94654
 665.40;50692.492;   -5.859;56865.658;89.14542
 665.98;50493.663;  -10.492;56778.531;88.93295
 666.56;50403.267;   -6.726;56703.770;88.89006
 667.13;50703.771;  -14.659;57042.609;88.89039
 667.71;49890.242;  -15.292;56337.449;88.55920
 668.29;48718.913;  -15.159;55217.255;88.23455
 668.87;48449.084;  -15.525;54979.994;88.12465
 669.44;48043.955;   -9.492;54675.833;87.87266
 670.02;48194.660;  -16.092;54771.872;87.99515
 670.60;47591.497;   -7.392;54240.378;87.74349
 671.18;47560.801;  -10.725;54226.351;87.71035
 671.76;47881.172;   -6.292;54462.290;87.91759
 672.33;47597.810;  -12.692;54331.763;87.60876
 672.91;47779.848;  -17.025;54571.302;87.55878
 673.49;47639.052;  -20.192;54450.508;87.49519
 674.07;47725.856;  -19.691;54651.581;87.33206
 674.64;47419.261;   -9.258;54241.720;87.42426
 675.22;47907.632;  -16.091;54689.659;87.60272
 675.80;47737.236;  -12.891;54556.665;87.50324
 676.38;47876.507;  -11.591;54760.771;87.43114
 676.95;48310.678;   -9.391;55210.610;87.50465
 677.53;48242.182;   -8.891;55026.216;87.67326
 678.11;48441.920;  -12.858;55268.622;87.65101
 678.68;48363.324;  -12.391;55188.695;87.63544
 679.26;49050.395;  -12.691;55993.701;87.60265
 679.84;49337.999;  -13.691;56105.273;87.94120
 680.42;49047.403;  -12.391;55847.012;87.82728
 680.99;49199.041;  -13.057;55927.285;87.97247
 681.57;49019.479;  -12.124;55788.824;87.86876
 682.15;49622.183;  -10.490;56341.930;88.07550
 682.72;49457.054;   -9.724;56226.936;87.96180
 683.30;49381.158;  -10.690;56048.609;88.10643
 683.88;49590.963;  -12.490;56292.248;88.09819
 684.45;49431.867;  -11.357;56067.921;88.16666
 685.03;49267.771;  -13.023;55939.460;88.07615
 685.61;48752.475;   -6.790;55476.466;87.88105
 686.18;48988.146;  -12.757;55782.372;87.82291
 686.76;48354.017;   -8.357;55184.611;87.62416
 687.34;48297.288;  -10.623;55130.850;87.60722
 687.91;47947.493;  -15.923;54852.889;87.41471
 688.49;47650.397;  -11.390;54533.329;87.38112
 689.07;47939.901;  -16.623;54846.935;87.41053
 689.64;47507.272;  -15.356;54332.474;87.44163
 690.22;46708.743;  -16.356;53641.647;87.07946
 690.80;46469.381;  -13.989;53600.186;86.69978
 691.37;45841.185;  -12.156;53265.658;86.06461
 691.95;45016.589;  -17.589;52910.964;85.08485
 692.53;44601.160;  -16.656;53289.370;83.70126
 693.10;43090.198;  -14.189;52787.209;81.63493
 693.68;40963.069;   -7.922;52139.982;78.56690
 694.25;38778.873;  -13.089;51723.455;74.97981
 694.83;36360.211;  -15.122;51300.461;70.88555
 695.41;34286.748;  -16.789;51509.767;66.57448
 695.98;31658.319;  -11.255;50823.539;62.29901
 696.56;29781.190;  -12.255;50962.712;58.44721
 697.13;27929.395;  -10.322;50833.818;54.95170
 697.71;26329.299;  -13.789;49852.057;52.82792
 698.29;25575.770;  -10.322;49877.729;51.28701
 698.86;25178.841;  -14.322;49390.869;50.99295
 699.44;25184.712;  -11.488;49477.541;50.91270
 700.01;23872.716;  -14.622;48885.814;48.84893
 700.59;21343.820;  -11.122;48982.853;43.58687
 701.16;16780.758;  -14.155;48314.159;34.75170
 701.74;11843.962;  -13.221;48010.832;24.69009
 702.32; 7478.567;  -10.621;47920.504;15.62489
 702.89; 4539.704;  -12.388;47873.610; 9.50610
 703.47; 2717.342;   -8.688;47312.383; 5.76071
 704.04; 1694.613;  -12.754;47059.489; 3.62712
 704.62; 1119.450;  -10.354;46791.528; 2.41402
 705.19;  788.755;  -15.221;46946.501; 1.71198
 705.77;  592.492;  -14.621;46518.507; 1.30469
 706.34;  464.730;   -9.554;46378.746; 1.02242
 706.92;  378.734;   -8.421;46242.918; 0.83707
 707.49;  309.072;  -10.754;45085.724; 0.70920
 708.07;  261.843;  -10.721;45054.297; 0.60482
 708.64;  232.847;  -10.521;45036.903; 0.54025
 709.22;  213.551;  -11.587;45102.042; 0.49905
 709.79;  189.722;  -17.554;45318.281; 0.45720
 710.37;  167.960;  -13.587;44565.387; 0.40725
 710.94;  153.731;   -7.954;43954.993; 0.36777
 711.52;  143.169;  -14.254;43968.799; 0.35792
 712.09;  125.906;  -10.587;43640.138; 0.31269
 712.67;  126.344;   -5.220;43878.844; 0.29980
 713.24;  115.681;   -8.353;43389.584; 0.28581
 713.82;  107.919;  -14.653;42908.589; 0.28556
 714.39;  103.157;   -8.620;42794.629; 0.26114
 714.97;  101.561;  -16.486;42088.235; 0.28037
 715.54;   93.665;  -17.120;42029.007; 0.26348
 716.12;   82.003;  -10.920;41689.147; 0.22284
 716.69;   77.840;  -10.753;41606.352; 0.21288
 717.27;   83.378;  -13.086;41343.925; 0.23325
 717.84;   76.482;  -14.886;41107.431; 0.22219
 718.42;   65.253;  -11.719;41029.837; 0.18755
 718.99;   69.224;  -10.219;40528.409; 0.19597
 719.57;   64.695;  -17.253;39763.915; 0.20600
 720.14;   62.333;  -10.353;40243.221; 0.18057
 720.71;   55.570;  -13.286;39669.727; 0.17352
 721.29;   54.541;  -17.252;39425.333; 0.18202
 721.86;   58.346;  -15.686;39442.772; 0.18762
 722.44;   53.117;  -13.452;38607.145; 0.17237
 723.01;   47.454;  -15.519;38269.151; 0.16449
 723.59;   49.092;  -13.585;37922.990; 0.16522
 724.16;   61.263;  -16.685;37951.396; 0.20530
 724.73;   45.934;  -10.552;38094.735; 0.14824
 725.31;   51.705;  -12.385;37236.141; 0.17206
 725.88;   52.176;  -13.452;37231.714; 0.17620
 726.46;   43.847;  -12.452;36844.420; 0.15275
 727.03;   39.818;  -10.885;36232.392; 0.13990
 727.60;   48.055;  -11.185;36061.698; 0.16422
 728.18;   37.560;  -13.218;35863.571; 0.14153
 728.75;   41.831;  -13.885;35570.977; 0.15657
 729.32;   39.702;  -10.751;35032.283; 0.14397
 729.90;   46.639;  -19.951;34621.189; 0.19223
 730.47;   37.510;  -15.918;34186.595; 0.15621
 731.05;   45.748;  -15.818;34467.301; 0.17854
 731.62;   43.619;  -10.551;34049.873; 0.15904
 732.19;   33.890;   -9.751;33292.846; 0.13104
 732.77;   39.327;  -14.518;33028.385; 0.16295
 733.34;   36.698;  -19.918;32792.891; 0.17254
 733.91;   36.503;  -17.417;32284.230; 0.16693
 734.49;   27.707;   -6.384;31871.403; 0.10694
 735.06;   30.144;  -19.984;31728.909; 0.15789
 735.63;   28.415;  -17.984;31466.815; 0.14737
 736.21;   31.820;  -10.784;30832.787; 0.13813
 736.78;   34.524;  -17.750;30514.260; 0.17121
 737.35;   35.428;   -8.184;30049.499; 0.14509
 737.93;   37.533;   -9.450;29991.638; 0.15660
 738.50;   35.204;  -16.117;29799.244; 0.17213
 739.07;   29.641;  -18.550;29472.584; 0.16341
 739.64;   33.945;  -14.383;28981.856; 0.16667
 740.22;   25.350;  -11.917;28607.229; 0.13022
 740.79;   33.021;  -12.650;28056.768; 0.16271
 741.36;   22.958;  -12.583;27580.107; 0.12881
 741.94;   29.363;  -13.916;27164.013; 0.15924
 742.51;   37.834;   -9.383;26782.619; 0.17623
 743.08;   28.405;  -13.250;26689.325; 0.15599
 743.65;   25.942;  -14.383;25870.564; 0.15579
 744.23;   25.580;  -17.816;25956.870; 0.16707
 744.80;   29.217;  -12.483;25382.610; 0.16421
 745.37;   24.055;  -12.383;24865.149; 0.14647
 745.95;   29.859;  -14.816;24416.521; 0.18286
 746.52;   32.147;  -12.966;24159.927; 0.18663
 747.09;   34.435;  -11.116;23903.333; 0.19047
 747.66;   23.472;  -10.349;23290.772; 0.14515
 748.23;   27.510;  -15.349;22649.778; 0.18910
 748.81;   28.281;  -14.682;22486.684; 0.19094
 749.38;   24.652;  -14.882;22240.290; 0.17764
 749.95;   23.723;  -10.149;21571.130; 0.15695
 750.52;   25.927;  -17.449;21491.135; 0.20167
 751.10;   23.531;  -12.182;21334.108; 0.16730
 751.67;   26.102;  -16.615;20254.514; 0.21073
 752.24;   27.740;  -10.949;20337.020; 0.19013
 752.81;   29.177;  -15.315;19899.959; 0.22341
 753.38;   23.515;   -9.982;19421.265; 0.17239
 753.96;   25.853;  -18.448;19121.238; 0.23146
 754.53;   17.357;  -10.282;18557.010; 0.14886
 755.10;   23.328;  -13.248;18161.583; 0.20125
 755.67;   20.266;  -14.081;17892.855; 0.19181
 756.24;   22.037;  -18.648;17808.495; 0.22822
 756.82;   19.374;  -14.781;17252.501; 0.19780
 757.39;   22.878;  -20.348;16923.440; 0.25512
 757.96;   21.283;   -5.681;16401.646; 0.16434
 758.53;   23.620;  -14.514;16064.485; 0.23717
 759.10;   23.258;  -12.281;15773.258; 0.22514
 759.67;   24.796;  -10.314;15400.364; 0.22783
 760.25;   20.200;  -12.081;15328.136; 0.21043
 760.82;   17.504;  -12.114;14794.175; 0.20004
 761.39;   23.708;  -16.247;14690.648; 0.27168
 761.96;   25.079;  -12.914;14212.387; 0.26708
 762.53;   21.150;  -15.547;13663.060; 0.26829
 763.10;   21.088;  -14.081;13201.732; 0.26611
 763.67;   20.692;  -12.514;13097.672; 0.25328
 764.25;   25.763;  -11.914;13031.678; 0.28885
 764.82;   20.101;  -15.180;12788.217; 0.27556
 765.39;   20.172;  -16.380;12222.223; 0.29866
 765.96;   18.976;   -6.380;11863.362; 0.21362
 766.53;   24.114;  -15.347;11928.868; 0.33037
 767.10;   17.951;  -12.047;11534.341; 0.25981
 767.67;   21.222;  -14.913;11395.113; 0.31670
 768.24;   20.527;  -11.180;11154.319; 0.28397
 768.81;   13.564;  -16.547;10674.358; 0.28165
 769.39;   19.369;  -12.280;10412.764; 0.30358
 769.96;   19.706;  -15.180;10234.470; 0.34036
 770.53;   24.844;  -11.180;10132.676; 0.35513
 771.10;   17.215;   -7.913; 9868.482; 0.25442
 771.67;   17.786;  -13.146; 9620.755; 0.32107
 772.24;   22.290;  -10.813; 9429.827; 0.35064
 772.81;   11.528;  -17.979; 9259.533; 0.31805
 773.38;   17.965;  -10.079; 8976.173; 0.31208
 773.95;   14.003;   -9.346; 8684.712; 0.26856
 774.52;   15.141;  -17.212; 8535.518; 0.37828
 775.09;   17.678;  -18.312; 8356.590; 0.42974
 775.66;   16.649;  -16.346; 8145.830; 0.40424
 776.23;   16.653;  -20.012; 7859.135; 0.46535
 776.80;   17.291;  -20.946; 7896.508; 0.48294
 777.37;   17.529;  -16.445; 7658.681; 0.44265
 777.94;   16.966;  -12.779; 7478.987; 0.39704
 778.51;   17.404;  -17.012; 7443.826; 0.46129
 779.08;   15.908;  -13.012; 7287.965; 0.39611
 779.65;   17.646;  -10.545; 7110.604; 0.39588
 780.22;   17.617;  -18.112; 6913.877; 0.51542
 780.79;   17.888;  -19.112; 6854.750; 0.53826
 781.36;   12.925;  -15.745; 6649.089; 0.43017
 781.93;   18.163;  -15.445; 6559.628; 0.51114
 782.50;   21.834;  -17.311; 6435.701; 0.60662
 783.07;   20.505;  -16.378; 6294.173; 0.58446
 783.64;   11.509;  -15.211; 6191.213; 0.43053
 784.21;   15.447;  -15.311; 6074.818; 0.50505
 784.78;   16.518;   -9.811; 5993.591; 0.43857
 785.35;   10.089;   -7.878; 5999.397; 0.29908
 785.92;   12.993;  -11.311; 5749.803; 0.42186
 786.49;   16.364;  -13.078; 5698.509; 0.51547
 787.06;   14.168;  -11.878; 5572.781; 0.46638
 787.63;   15.106;  -22.378; 5627.854; 0.66340
 788.20;   14.410;   -8.777; 5441.193; 0.42546
 788.77;   16.314;  -15.277; 5369.733; 0.58666
 789.34;   18.919;  -17.344; 5311.405; 0.68051
 789.91;   15.090;  -15.377; 5265.311; 0.57695
 790.48;   10.161;  -17.611; 5251.750; 0.52703
 791.05;    7.732;  -19.810; 5095.523; 0.53842
 791.62;   10.969;  -16.210; 5042.062; 0.53733
 792.19;   10.040;  -15.710; 4942.501; 0.51935
 792.76;   17.011;  -13.077; 4982.907; 0.60224
 793.33;    7.682;  -13.577; 4913.347; 0.43148
 793.89;   13.820;  -20.243; 4831.819; 0.70203
 794.46;   16.457;   -9.810; 4760.458; 0.55065
 795.03;    9.295;  -20.110; 4798.631; 0.61022
 795.60;    9.566;   -5.377; 4738.604; 0.31498
 796.17;   10.304;  -23.476; 4621.343; 0.72726
 796.74;    6.275;  -15.276; 4627.449; 0.46419
 797.31;   11.379;  -12.210; 4659.921; 0.50488
 797.88;   11.516;  -14.476; 4581.461; 0.56556
 798.45;   10.254;  -15.310; 4581.367; 0.55613
 799.01;    7.792;  -20.276; 4530.473; 0.61677
 799.58;   12.196;  -13.309; 4545.378; 0.55949
 800.15;   15.134;  -16.476; 4390.751; 0.71722
 800.72;   15.505;  -12.809; 4418.357; 0.63897
 801.29;    8.309;   -8.476; 4488.063; 0.37328
 801.86;   13.280;  -13.542; 4426.035; 0.60416
 802.43;    5.651;  -11.476; 4415.108; 0.38690
 802.99;    8.655;  -20.442; 4376.047; 0.66183
 803.56;    7.793;  -10.876; 4427.920; 0.42057
 804.13;    9.697;  -14.809; 4349.459; 0.56151
 804.70;    4.001;  -15.775; 4381.165; 0.44978
 805.27;    7.439;  -17.575; 4325.438; 0.57596
 805.84;    9.177;  -10.709; 4305.777; 0.46068
 806.40;   10.481;  -10.375; 4378.050; 0.47525
 806.97;    4.985;  -16.208; 4347.722; 0.48565
 807.54;   13.256;  -17.508; 4378.161; 0.69988
 808.11;    5.160;  -15.875; 4326.567; 0.48441
 808.68;   14.365;  -15.508; 4307.307; 0.69105
 809.24;   10.536;  -12.375; 4371.946; 0.52255
 809.81;    7.273;  -17.075; 4252.952; 0.57021
 810.38;    5.778;  -16.408; 4226.258; 0.52292
 810.95;    7.248;  -14.008; 4184.164; 0.50633
 811.52;    5.919;  -22.075; 4142.703; 0.67216
 812.08;   11.957;  -14.141; 4082.242; 0.63710
 812.65;    9.928;  -19.974; 4183.215; 0.71142
 813.22;    3.199;  -11.641; 4109.887; 0.36006
 813.79;    4.970;  -14.908; 4106.260; 0.48233
 814.35;    6.574;  -16.508; 4089.366; 0.56216
 814.92;    5.212;  -17.674; 4062.472; 0.56091
 815.49;   12.649;   -7.741; 4056.544; 0.50169
 816.06;    3.387;  -12.607; 4044.417; 0.39424
 816.62;    1.425;  -10.374; 3988.923; 0.29502
 817.19;    4.096;  -17.274; 3952.329; 0.53833
 817.76;    3.500;  -11.674; 3984.635; 0.37969
 818.33;   -0.562;  -17.640; 3945.941; 0.43087
 818.89;    6.675;  -18.774; 3963.147; 0.63911
 819.46;    8.646;  -10.707; 3937.919; 0.49012
 820.03;    8.884;  -18.040; 3919.392; 0.68379
 820.60;    6.721;  -11.440; 3928.764; 0.46093
 821.16;    9.392;  -16.207; 3881.470; 0.65678
 821.73;    3.263;  -16.407; 3867.643; 0.50643
 822.30;    4.868;  -13.707; 3789.549; 0.48838
 822.86;    1.405;  -19.240; 3805.088; 0.53983
 823.43;   -6.724;  -20.006; 3842.194; 0.34391
 824.00;    3.447;  -12.406; 3861.167; 0.40927
 824.56;    1.885;  -18.506; 3757.373; 0.54003
 825.13;    5.689;  -19.173; 3775.212; 0.65523
 825.70;    0.527;  -14.339; 3801.184; 0.38962
 826.26;   -0.569;  -15.506; 3762.124; 0.39541
 826.83;    7.169;  -15.239; 3732.896; 0.59784
 827.40;    1.240;  -17.039; 3772.502; 0.48235
 827.96;   -0.389;  -17.873; 3748.308; 0.46421
 828.53;    2.248;  -19.506; 3701.847; 0.58457
 829.10;   -1.248;  -19.206; 3694.887; 0.48351
 829.66;    6.490;  -14.872; 3686.859; 0.57709
 830.23;    3.128;  -18.372; 3641.798; 0.58740
 830.80;    1.932;  -20.406; 3663.104; 0.60642
 831.36;    2.536;  -15.605; 3639.210; 0.49638
 831.93;    1.541;  -23.839; 3596.716; 0.70098
 832.49;    7.745;  -12.772; 3639.589; 0.56174
 833.06;    1.182;   -9.139; 3620.861; 0.28433
 833.63;    4.120;  -16.272; 3642.434; 0.55735
 834.19;    3.458;  -15.305; 3572.307; 0.52299
 834.76;    1.129;  -21.438; 3576.546; 0.62721
 835.33;   -3.434;   -9.972; 3508.618; 0.18581
 835.89;    6.004;  -19.705; 3588.858; 0.71244
 836.46;    3.075;  -16.905; 3561.564; 0.55833
 837.02;    5.279;  -12.771; 3550.270; 0.50661
 837.59;   -4.750;  -17.838; 3493.709; 0.37272
 838.15;    0.088;  -14.638; 3484.348; 0.42086
 838.72;    7.192;   -8.205; 3483.654; 0.44093
 839.29;    8.830;  -18.438; 3401.560; 0.79729
 839.85;   -2.966;  -23.838; 3458.899; 0.59929
 840.42;    3.872;  -13.604; 3480.005; 0.50022
 840.98;    2.876;  -12.338; 3415.278; 0.44385
 841.55;    1.347;  -13.804; 3387.684; 0.44542
 842.11;   -2.316;  -15.604; 3363.290; 0.39328
 842.68;    2.455;  -19.371; 3369.796; 0.64400
 843.24;    1.726;  -15.804; 3353.968; 0.52022
 843.81;   -0.036;  -16.171; 3343.407; 0.48026
 844.38;    0.368;  -18.537; 3348.813; 0.56143
 844.94;    2.606;  -15.604; 3306.619; 0.54812
 845.51;   -1.056;  -17.670; 3297.092; 0.50121
 846.07;    3.914;  -19.204; 3286.664; 0.69930
 846.64;   -1.315;  -14.270; 3284.304; 0.39277
 847.20;    1.223;  -20.337; 3243.176; 0.66063
 847.77;    0.427;  -12.370; 3219.116; 0.39602
 848.33;    2.565;  -13.570; 3192.855; 0.50321
 848.90;   -5.531;  -12.737; 3182.361; 0.22553
 849.46;    5.740;  -15.303; 3185.300; 0.65748
 850.03;    3.178;  -16.136; 3158.339; 0.60842
 850.59;    7.649;  -16.903; 3184.578; 0.76689
 851.16;   -1.547;  -20.170; 3114.484; 0.59409
 851.72;    2.491;  -13.770; 3084.990; 0.52474
 852.29;    0.028;  -17.669; 3088.596; 0.56975
 852.85;   -3.534;  -19.369; 3103.769; 0.50704
 853.41;    1.270;  -17.769; 3039.441; 0.62278
 853.98;    9.441;   -7.669; 3061.547; 0.55749
 854.54;   -5.488;  -11.003; 3014.020; 0.18230
 855.11;    1.783;  -18.802; 2977.893; 0.68694
 855.67;   -0.313;  -12.069; 2979.499; 0.39299
 856.24;    2.092;  -18.002; 2954.438; 0.67601
 856.80;    8.896;  -18.969; 2968.710; 0.93266
 857.37;    3.167;  -19.769; 2918.116; 0.78069
 857.93;    2.438;  -17.835; 2864.189; 0.70344
 858.49;    3.909;  -17.435; 2899.795; 0.73166
 859.06;    4.347;  -19.269; 2870.134; 0.81730
 859.62;   10.384;   -8.435; 2797.973; 0.67059
 860.19;   -6.812;  -20.969; 2737.246; 0.51326
 860.75;    6.593;  -14.268; 2809.719; 0.73871
 861.31;   -2.270;  -14.268; 2784.858; 0.42866
 861.88;    1.568;  -21.102; 2841.097; 0.79203
 862.44;    5.706;  -21.502; 2746.503; 0.98292
 863.01;    4.310;  -17.668; 2709.609; 0.80586
 863.57;    3.681;  -13.201; 2694.081; 0.62359
 864.13;   -4.282;  -18.868; 2695.521; 0.53738
 864.70;   -0.044;  -19.235; 2633.593; 0.72341
 865.26;    1.827;  -13.501; 2636.499; 0.57842
 865.82;   -3.435;  -19.001; 2646.305; 0.58402
 866.39;    1.569;  -19.834; 2611.778; 0.81332
 866.95;    1.173;  -17.101; 2594.184; 0.69982
 867.52;   -0.456;  -23.401; 2565.356; 0.88634
 868.08;    6.382;  -18.001; 2557.496; 0.94672
 868.64;   -0.714;  -13.834; 2523.268; 0.51713
 869.21;    0.324;  -15.367; 2498.374; 0.62421
 869.77;    5.061;  -17.801; 2468.747; 0.91943
 870.33;   -3.368;  -15.501; 2460.719; 0.48998
 870.90;   -5.397;  -14.100; 2446.092; 0.35378
 871.46;   -7.259;  -14.567; 2417.864; 0.30044
 872.02;    2.745;  -20.767; 2425.204; 0.96126
 872.58;   -0.017;  -10.067; 2409.510; 0.41535
 873.15;    0.787;  -21.767; 2346.016; 0.95254
 873.71;   -2.409;  -15.167; 2362.221; 0.53665
 874.27;    6.729;  -13.100; 2355.561; 0.83714
 874.84;    0.967;  -11.900; 2310.733; 0.55397
 875.40;   -1.467;  -20.633; 2282.867; 0.83207
 875.96;    1.500;  -12.300; 2283.733; 0.60104
 876.53;   -1.900;  -19.400; 2221.067; 0.78109
 877.09;   -7.433;  -12.233; 2217.800; 0.21524
 877.65;    3.167;  -23.133; 2196.133; 1.18508
 878.21;    0.367;  -22.333; 2182.133; 1.02973
 878.78;    3.100;  -13.167; 2171.900; 0.74445
 879.34;    0.000;  -11.133; 2148.033; 0.51563
 879.90;    0.600;  -17.767; 2104.167; 0.86556
 880.46;   -0.467;  -19.833; 2080.800; 0.92194
 881.03;    5.600;  -17.433; 2052.333; 1.11285
 881.59;   -1.500;  -18.300; 2083.233; 0.79942
 882.15;   -2.767;  -22.633; 2032.633; 0.96662
 882.71;    0.000;  -15.800; 1999.133; 0.78415
 883.28;   -0.300;  -12.500; 2002.433; 0.60548
 883.84;   -1.867;  -14.033; 1954.333; 0.61811
 884.40;   -3.267;  -21.700; 1918.200; 0.95022
 884.96;    7.500;  -11.300; 1953.767; 0.95671
 885.52;   -3.333;  -14.233; 1907.467; 0.56721
 886.09;    0.167;  -21.200; 1893.900; 1.11569
 886.65;   -0.633;  -11.067; 1848.033; 0.56120
 887.21;    2.167;  -16.400; 1815.800; 1.01335
 887.77;    0.967;  -15.967; 1850.700; 0.90714
 888.33;   -0.967;  -18.000; 1838.333; 0.91758
 888.90;    4.367;  -17.333; 1844.533; 1.16550
 889.46;    1.233;  -20.200; 1791.100; 1.18331
 890.02;    0.900;  -17.133; 1773.667; 1.00700
 890.58;   -3.933;  -23.533; 1793.233; 1.07884
 891.14;   -7.367;  -17.633; 1810.567; 0.56157
 891.70;   -5.967;  -16.200; 1750.800; 0.57914
 892.27;   -1.667;  -16.400; 1741.367; 0.83818
 892.83;   -5.567;  -18.533; 1744.067; 0.73566
 893.39;   -1.633;  -15.933; 1761.433; 0.80456
 893.95;   -2.967;  -20.067; 1707.033; 0.99010
 894.51;    5.333;  -17.167; 1714.167; 1.29958
 895.07;    0.200;  -15.500; 1772.367; 0.87814
 895.63;   -3.033;  -18.433; 1726.867; 0.88237
 896.20;    0.500;  -15.533; 1737.333; 0.91469
 896.76;   -6.967;  -14.133; 1747.133; 0.40690
 897.32;    1.000;  -17.000; 1753.567; 1.01662
 897.88;   -5.367;  -15.900; 1751.600; 0.59595
 898.44;  -12.433;  -12.833; 1774.067; 0.02239
 899.00;   -1.167;  -16.933; 1748.800; 0.89292
 899.56;   -4.100;  -12.833; 1776.700; 0.48802
 900.12;    2.967;  -21.267; 1760.800; 1.35984
 900.68;   -1.600;  -15.667; 1741.000; 0.80076
 901.24;   -5.167;  -18.100; 1743.667; 0.73411
 901.81;   -4.467;  -16.767; 1733.633; 0.70270
 902.37;    4.367;  -20.500; 1745.000; 1.40848
 902.93;   -6.900;  -16.733; 1727.267; 0.56384
 903.49;   -0.367;  -18.467; 1711.067; 1.04653
 904.05;   -2.667;  -17.400; 1696.167; 0.85981
 904.61;    0.967;  -19.567; 1686.067; 1.20385
 905.17;  -10.667;  -20.767; 1663.200; 0.59977
 905.73;   -3.433;  -17.900; 1666.233; 0.85900
 906.29;   -2.967;  -13.867; 1669.900; 0.64736
 906.85;   -2.800;  -19.200; 1635.567; 0.99108
 907.41;   -3.033;  -15.633; 1657.567; 0.75305
 907.97;   -1.300;  -16.267; 1619.767; 0.91481
 908.53;   -6.633;  -14.233; 1597.267; 0.47161
 909.09;   -1.067;  -20.600; 1597.367; 1.20728
 909.65;    1.167;  -18.700; 1549.333; 1.26698
 910.21;   -4.367;  -18.267; 1549.933; 0.88637
 910.77;   -4.533;  -17.100; 1532.100; 0.81117
 911.33;   -0.600;  -14.433; 1530.900; 0.89517
 911.89;   -1.000;  -20.467; 1545.533; 1.24308
 912.45;   -3.900;  -15.400; 1510.600; 0.75360
 913.01;   -3.300;  -20.867; 1470.900; 1.17757
 913.57;    1.633;  -28.700; 1459.100; 2.03880
 914.13;   -6.500;  -16.033; 1468.267; 0.64228
 914.69;   -2.867;  -15.467; 1453.800; 0.85757
 915.25;   -0.533;  -21.767; 1417.700; 1.47508
 915.81;   -2.000;  -10.133; 1422.633; 0.56767
 916.37;   -0.700;  -13.633; 1426.933; 0.89779
 916.93;   -3.233;  -16.667; 1386.667; 0.95724
 917.49;   -7.300;  -16.967; 1404.033; 0.68027
 918.05;   -0.933;  -13.400; 1377.333; 0.89641
 918.61;   -5.000;  -19.367; 1380.667; 1.02617
 919.17;   -1.233;  -15.933; 1361.900; 1.06689
 919.73;   -4.267;  -15.600; 1373.700; 0.81576
 920.29;    0.833;  -15.300; 1361.000; 1.17223
 920.85;   -2.967;  -12.233; 1339.333; 0.68562
 921.40;   -1.000;  -20.267; 1297.000; 1.46262
 921.96;    0.200;  -15.900; 1311.400; 1.21299
 922.52;   -3.300;  -14.333; 1292.600; 0.84422
 923.08;    1.000;  -20.700; 1285.500; 1.66131
 923.64;   -7.133;  -19.567; 1270.567; 0.96372
 924.20;   -5.233;  -12.867; 1259.900; 0.59974
 924.76;   -4.667;  -19.067; 1257.233; 1.12826
 925.32;   -1.367;  -22.500; 1260.300; 1.64744
 925.88;   -3.067;  -16.333; 1255.500; 1.04311
 926.44;   -4.200;  -21.367; 1271.433; 1.32787
 926.99;    0.333;  -21.500; 1240.100; 1.73061
 927.55;   -5.833;  -16.867; 1226.367; 0.88747
 928.11;   -1.400;  -21.800; 1233.833; 1.62468
 928.67;   -0.567;  -11.500; 1212.033; 0.89359
 929.23;   -7.333;  -19.400; 1217.233; 0.97577
 929.79;   -8.167;  -18.900; 1183.233; 0.89286
 930.35;   -1.600;  -18.933; 1192.067; 1.43132
 930.90;   -1.100;  -20.433; 1191.367; 1.59542
 931.46;    0.967;  -14.933; 1175.200; 1.33598
 932.02;   -6.933;  -15.600; 1158.133; 0.73838
 932.58;   -0.133;  -16.967; 1168.733; 1.41970
 933.14;   -4.067;  -13.167; 1167.333; 0.77086
 933.69;   -1.033;  -11.633; 1135.233; 0.92426
 934.25;    1.967;  -19.400; 1107.033; 1.89684
 934.81;   -3.633;  -14.800; 1125.200; 0.97953
 935.37;    3.400;  -19.367; 1121.333; 1.99585
 935.93;    1.233;  -17.567; 1112.167; 1.66411
 936.49;  -10.333;  -11.733; 1109.400; 0.12487
 937.04;   -2.033;  -14.200; 1121.200; 1.07158
 937.60;   -0.367;  -16.333; 1114.633; 1.41177
 938.16;   -0.333;  -19.767; 1084.800; 1.75936
 938.72;    0.933;  -13.633; 1074.367; 1.33885
 939.27;   -4.200;  -12.967; 1073.533; 0.80687
 939.83;   -2.033;  -20.467; 1068.767; 1.69232
 940.39;    0.767;  -16.867; 1062.533; 1.63362
 940.95;   -1.767;  -16.000; 1049.233; 1.33617
 941.50;   -1.333;  -18.033; 1062.267; 1.54587
 942.06;   -1.700;  -15.300; 1050.033; 1.27660
 942.62;   -7.133;  -20.800; 1014.833; 1.31964
 943.18;   -0.700;  -13.567; 1042.300; 1.21859
 943.73;   -2.367;  -21.000; 1017.767; 1.79379
 944.29;   -7.467;  -16.067;  971.300; 0.87100
 944.85;   -5.200;  -23.900;  989.767; 1.84479
 945.41;   -0.767;  -16.833;  993.500; 1.59023
 945.96;   -4.533;  -12.133;  999.633; 0.75116
 946.52;   -1.700;  -14.233;  993.600; 1.24359
 947.08;   -7.467;  -20.200;  995.133; 1.25410
 947.63;   -2.700;  -21.200;  972.800; 1.86117
 948.19;   -2.100;  -19.267;  975.333; 1.72599
 948.75;    3.500;  -16.533;  957.900; 2.05590
 949.31;    2.200;  -11.467;  947.067; 1.42579
 949.86;   -5.267;  -15.300;  937.900; 1.05259
 950.42;    1.367;  -18.533;  948.267; 2.05834
 950.98;   -6.633;  -17.233;  936.800; 1.11107
 951.53;   -2.667;  -20.200;  916.367; 1.87209
 952.09;   -5.967;  -16.367;  886.400; 1.15201
 952.65;   -4.467;  -17.933;  897.033; 1.47182
 953.20;   -3.633;  -12.100;  904.200; 0.92401
 953.76;   -1.533;  -19.000;  884.767; 1.93265
 954.32;   -1.667;  -18.967;  882.000; 1.92016
 954.87;    4.133;  -20.033;  883.933; 2.67340
 955.43;    2.100;  -15.333;  863.067; 1.98467
 955.98;   -4.767;  -25.800;  848.200; 2.40656
 956.54;   -0.067;  -13.333;  850.233; 1.53626
 957.10;   -3.333;  -24.300;  853.800; 2.38773
 957.65;    2.067;  -21.633;  844.100; 2.73756
 958.21;    0.167;  -11.833;  833.133; 1.42017
 958.77;   -4.100;  -16.467;  846.133; 1.43365
 959.32;    0.000;  -20.400;  824.700; 2.41392
 959.88;   -4.833;  -16.600;  811.733; 1.42052
 960.43;    4.433;  -22.600;  806.200; 3.26174
 960.99;   -8.100;  -21.133;  807.133; 1.57357
 961.54;    1.533;  -17.967;  807.133; 2.36335
 962.10;   -5.900;  -22.100;  786.400; 2.00371
 962.66;    0.167;  -14.433;  784.233; 1.82805
 963.21;   -5.633;  -15.300;  775.367; 1.22260
 963.77;   -2.100;  -23.133;  762.533; 2.67713
 964.32;   -4.600;  -14.367;  775.500; 1.23650
 964.88;    1.200;  -16.667;  764.500; 2.28718
 965.43;   -3.233;  -22.033;  743.467; 2.45591
 965.99;    1.067;  -18.267;  747.433; 2.52492
 966.55;   -0.467;  -18.567;  742.400; 2.37855
 967.10;    1.533;  -22.167;  734.600; 3.13174
 967.66;   -1.233;  -14.067;  706.933; 1.77994
 968.21;   -5.067;  -14.800;  714.200; 1.33516
 968.77;   -2.867;  -20.167;  694.800; 2.41969
 969.32;   -2.400;  -19.667;  685.600; 2.44825
 969.88;   -3.633;  -19.567;  692.733; 2.23689
 970.43;    3.600;  -18.333;  678.367; 3.14817
 970.99;   -4.233;  -15.700;  676.367; 1.65687
 971.54;   -9.033;  -19.867;  673.133; 1.56325
 972.10;   -5.467;  -16.700;  683.100; 1.60522
 972.65;   -1.033;  -21.233;  658.600; 2.97132
 973.21;   -1.233;  -17.600;  652.467; 2.44254
 973.76;    2.400;  -17.133;  644.067; 2.95422
 974.32;   -5.467;  -15.167;  635.100; 1.49170
 974.87;   -2.433;  -16.400;  636.300; 2.13983
 975.43;    1.967;  -18.133;  629.600; 3.10313
 975.98;   -3.033;  -27.333;  610.200; 3.81157
 976.53;    2.100;  -12.333;  611.300; 2.31439
 977.09;   -5.467;  -16.867;  605.467; 1.83182
 977.64;   -6.533;  -24.567;  585.500; 2.95596
 978.20;    5.433;  -17.267;  584.867; 3.76993
 978.75;   -7.333;  -20.833;  591.467; 2.20480
 979.31;    6.267;  -16.567;  580.800; 3.82233
 979.86;    5.967;  -17.600;  573.533; 3.98669
 980.42;    9.500;  -17.467;  566.600; 4.61705
 980.97;   28.733;  -13.267;  553.633; 7.40871
 981.52;   22.000;  -20.167;  539.133; 7.53919
 982.08;   26.033;  -17.633;  533.900; 7.91732
 982.63;   12.500;  -12.267;  550.967; 4.39723
 983.19;    1.567;  -17.433;  530.733; 3.46610
 983.74;   -2.367;  -19.600;  501.067; 3.30986
 984.29;   -1.733;  -14.500;  510.167; 2.43329
 984.85;    4.767;  -19.233;  523.900; 4.41880
 985.40;    1.000;  -11.933;  500.567; 2.52358
 985.96;   -0.633;  -21.867;  501.300; 4.05862
 986.51;   -1.567;  -18.000;  484.000; 3.27357
 987.06;   -2.567;  -20.100;  487.700; 3.45280
 987.62;    2.700;  -19.733;  479.233; 4.49596
 988.17;   -0.067;  -17.067;  484.167; 3.39163
 988.72;    2.667;  -22.000;  467.767; 5.03641
 989.28;    2.400;  -18.767;  462.067; 4.40208
 989.83;    3.633;  -16.100;  461.400; 4.13264
 990.38;    9.567;  -24.433;  446.300; 7.22277
 990.94;    2.000;  -19.767;  431.900; 4.81919
 991.49;    0.767;  -19.500;  426.033; 4.54886
 992.04;   -4.067;  -20.667;  425.900; 3.71725
 992.60;   -0.467;  -16.467;  430.267; 3.58156
 993.15;   -5.000;   -7.767;  408.400; 0.66480
 993.70;    6.000;  -19.067;  420.267; 5.70561
 994.26;    7.733;  -19.833;  413.800; 6.35714
 994.81;    5.533;  -16.300;  395.333; 5.30407
 995.36;    0.233;  -19.067;  420.433; 4.39135
 995.91;    3.500;  -20.533;  396.433; 5.76385
 996.47;   -2.367;  -22.433;  374.633; 5.05373
 997.02;    4.967;  -14.833;  377.367; 5.04844
 997.57;   -1.567;  -14.333;  379.533; 3.24137
 998.13;    6.800;   -9.800;  367.733; 4.39696
 998.68;    0.800;  -24.033;  358.200; 6.49690
 999.23;    0.267;  -21.133;  355.867; 5.67639
 999.78;    7.800;  -16.600;  352.967; 6.60233
1000.34;   11.267;  -19.300;  341.033; 8.48289
1000.89;   11.567;  -15.500;  330.900; 7.81370
1001.44;   23.200;  -17.533;  322.500;11.97922
1001.99;   34.100;  -20.567;  314.533;16.31354
1002.55;   61.800;  -20.133;  318.067;24.22630
1003.10;   99.467;  -24.133;  302.733;37.81358
1003.65;  111.367;  -21.167;  301.300;41.09986
1004.20;   94.833;  -19.367;  287.033;37.27154
1004.75;   61.767;  -24.800;  282.700;28.15176
1005.31;   34.900;  -26.000;  282.933;19.71299
1005.86;   21.367;  -21.833;  265.433;15.03829
1006.41;   16.133;  -24.233;  274.500;13.51261
1006.96;   13.700;  -18.567;  278.000;10.88007
1007.51;    8.033;  -19.867;  275.000; 9.46190
1008.07;   10.667;  -13.133;  277.700; 8.18338
1008.62;    8.100;  -13.400;  285.267; 7.19866
1009.17;    2.033;  -20.800;  298.067; 7.16078
1009.72;    1.533;  -21.067;  296.800; 7.10990
1010.27;   11.200;  -23.133;  313.033;10.21319
1010.82;    2.967;  -19.933;  312.800; 6.88239
1011.38;    2.067;  -17.567;  321.333; 5.79325
1011.93;    5.267;  -27.933;  312.800; 9.74369
1012.48;    3.433;  -17.167;  313.033; 6.23864
1013.03;    5.100;  -14.233;  317.667; 5.82505
1013.58;    7.100;  -18.233;  322.200; 7.44150
1014.13;   -1.367;  -16.333;  301.867; 4.70354
1014.68;    8.267;  -21.667;  290.767; 9.58071
1015.24;    9.933;  -14.533;  274.533; 8.46402
1015.79;    3.033;  -23.767;  286.167; 8.64702
1016.34;    4.900;  -23.767;  275.600; 9.57577
1016.89;    9.933;  -25.100;  280.167;11.47630
1017.44;    6.933;  -18.900;  268.000; 9.00430
1017.99;    3.567;  -27.167;  258.467;10.75972
1018.54;    4.567;  -19.900;  251.167; 9.02607
1019.09;   12.433;  -21.600;  252.000;12.43908
1019.64;   12.067;  -22.100;  246.067;12.74083
1020.19;    9.700;  -25.000;  239.400;13.12405
1020.75;   10.267;  -15.367;  232.967;10.32215
1021.30;   11.233;  -21.233;  236.733;12.58561
1021.85;   13.000;  -23.067;  231.067;14.19203
1022.40;   15.133;  -18.033;  231.300;13.30214
1022.95;   22.000;  -18.933;  231.167;16.36679
1023.50;   18.433;  -19.333;  217.867;15.92187
1024.05;   28.533;  -22.600;  208.933;22.08465
1024.60;   36.967;  -20.667;  209.167;25.07614
1025.15;   45.833;  -19.533;  208.900;28.61520
1025.70;   60.733;  -14.333;  196.533;35.59911
1026.25;   91.600;  -20.367;  202.733;50.18676
1026.80;  115.200;  -20.533;  194.833;63.02430
1027.35;  120.833;  -18.100;  188.433;67.26921
1027.90;  117.767;  -18.600;  190.567;65.19522
1028.45;  103.167;  -18.033;  182.067;60.56972
1029.00;   86.300;  -28.667;  184.633;53.89905
1029.55;   59.300;  -15.000;  179.667;38.16781
1030.10;   55.900;  -21.167;  175.000;39.28632
1030.65;   32.033;  -19.867;  172.900;26.92374
1031.20;   32.000;  -19.467;  176.533;26.25850
1031.75;   25.500;  -14.133;  169.100;21.62998
1032.30;   28.167;  -15.800;  174.633;23.08769
1032.85;   12.700;  -16.100;  172.200;15.29474
1033.40;   17.400;  -21.300;  158.200;21.55989
1033.95;   10.100;  -14.133;  161.033;13.83444
1034.50;    9.233;  -17.767;  159.000;15.27437
1035.05;   11.300;  -22.033;  152.600;19.08761
1035.60;    9.800;  -17.567;  156.800;15.69490
1036.15;    6.933;  -19.900;  154.867;15.35380
1036.69;   14.000;  -22.700;  155.333;20.61412
1037.24;    8.867;  -22.667;  152.533;17.99848
1037.79;    4.167;  -18.300;  140.667;14.13294
1038.34;    6.700;  -20.500;  142.133;16.72474
1038.89;    7.533;  -24.700;  140.667;19.49204
1039.44;   12.567;  -21.967;  133.933;22.15095
1039.99;    8.400;  -27.000;  138.567;21.38112
1040.54;   11.233;  -22.767;  132.867;21.84622
1041.09;   11.033;  -23.600;  121.933;23.79753
1041.64;    9.200;  -15.733;  136.000;16.43234
1042.18;    9.833;  -20.767;  133.400;19.84865
1042.73;    3.467;  -20.600;  125.767;16.44272
1043.28;   11.333;  -20.567;  127.133;21.59783
1043.83;    8.867;  -17.567;  128.933;18.04323
1044.38;    7.367;  -17.767;  123.333;17.81243
1044.93;    6.167;  -22.900;  114.100;21.21654
1045.48;    5.133;  -23.200;  116.500;20.28156
1046.02;   11.267;  -18.067;  119.100;21.38518
1046.57;    6.233;  -16.767;  120.200;16.79241
1047.12;    8.700;  -19.133;  108.967;21.72782
1047.67;   11.800;  -22.333;  117.300;24.44498
1048.22;   13.100;  -15.333;  113.900;22.00155
1048.77;   12.133;  -26.367;  116.733;26.90426
1049.31;    6.467;  -20.300;  110.167;20.51610
1049.86;   12.600;  -21.767;  109.467;26.18745
1050.41;   14.500;  -22.200;  106.767;28.45697
1050.96;   11.500;  -24.533;  103.067;28.23929
1051.51;   20.333;  -19.267;  107.167;31.32085
1052.05;   13.267;  -26.267;  110.300;28.94801
1052.60;   22.033;  -14.933;   99.633;32.26651
1053.15;   26.367;  -18.800;   99.733;38.10461
1053.70;   29.533;  -24.733;   99.667;43.62272
1054.25;   44.033;  -19.500;  107.800;49.90835
1054.79;   37.500;  -17.267;   97.800;47.59560
1055.34;   39.900;  -20.600;   97.933;51.04050
1055.89;   53.367;  -20.267;   94.433;64.19645
1056.44;   52.000;  -21.467;   90.033;65.88939
1056.98;   55.033;  -21.667;   89.733;68.85099
1057.53;   57.033;  -20.933;   94.967;67.27064
1058.08;   53.767;  -22.967;   87.667;69.35824
1058.63;   51.367;  -24.367;   90.633;65.85507
1059.17;   41.100;  -14.733;   88.833;53.91052
1059.72;   44.833;  -25.767;   86.733;62.75556
1060.27;   37.933;  -18.033;   88.133;52.71586
1060.81;   33.600;  -21.067;   81.633;53.22947
1061.36;   17.200;  -21.033;   75.833;39.47006
1061.91;   32.533;  -20.733;   81.967;51.86628
1062.45;   15.367;  -21.500;   77.200;37.35225
1063.00;   19.867;  -23.467;   81.300;41.36176
1063.55;   12.467;  -22.567;   81.800;33.56755
1064.10;   17.200;  -18.833;   72.667;39.38069
1064.64;   10.667;  -20.400;   79.267;31.17057
1065.19;   14.933;  -20.767;   76.700;36.62791
1065.74;    7.267;  -16.133;   74.867;25.71429
1066.28;   11.167;  -16.800;   77.433;29.67810
1066.83;    7.400;  -18.133;   82.233;25.44005
1067.38;    4.133;  -17.300;   76.067;22.95609
1067.92;    2.933;  -16.100;   73.933;21.14032
1068.47;    5.667;  -22.100;   77.500;27.87818
1069.01;    3.067;  -21.867;   68.700;27.53036
1069.56;    5.833;  -17.367;   71.467;26.11632
1070.11;   -1.767;  -22.767;   67.867;23.17028
1070.65;    8.033;  -18.933;   70.833;30.04085
1071.20;    0.933;  -20.600;   70.233;23.70642
1071.75;    1.233;  -20.233;   72.933;23.04115
1072.29;    8.233;  -19.267;   67.333;31.75520
1072.84;   10.133;  -25.900;   72.267;36.70628
1073.38;    2.700;  -18.933;   66.400;25.35156
1073.93;    6.167;  -25.067;   63.567;35.23881
1074.48;    1.233;  -20.433;   66.267;24.99039
1075.02;    2.100;  -25.400;   74.000;27.66600
1075.57;    1.533;  -24.500;   72.400;26.86619
1076.11;    3.400;  -17.033;   56.667;27.72501
1076.66;    8.000;  -20.600;   65.933;33.05085
1077.20;    8.433;  -17.367;   61.300;32.79661
1077.75;    0.800;  -18.233;   60.167;24.27721
1078.29;    5.400;  -22.833;   71.567;29.90819
1078.84;    0.333;  -17.100;   58.367;23.10071
1079.39;    7.833;  -18.400;   55.467;35.51444
1079.93;   -4.833;  -18.767;   60.333;17.61483
1080.48;    6.100;  -23.067;   58.733;35.65607
1081.02;   -2.933;  -28.567;   57.333;29.84090
1081.57;    3.733;  -20.833;   61.533;29.82598
1082.11;    2.500;  -21.933;   61.067;29.43775
1082.66;    1.533;  -20.767;   59.067;27.93319
1083.20;    8.167;  -18.700;   56.333;35.80631
1083.75;    3.367;  -19.233;   57.133;29.59406
1084.29;    7.800;  -17.333;   57.733;33.48135
1084.84;    0.767;  -17.933;   59.900;24.02570
1085.38;    9.733;  -18.367;   55.833;37.87062
1085.93;    1.633;  -25.567;   59.033;32.15130
1086.47;    1.367;  -26.400;   46.833;37.91534
1087.02;    9.900;  -17.500;   48.533;41.49419
1087.56;    8.100;  -20.367;   49.933;40.49312
1088.10;    3.933;  -19.167;   46.867;34.98233
1088.65;    9.833;  -16.067;   49.700;39.38165
1089.19;   16.800;  -26.500;   51.900;55.22959
1089.74;   11.067;  -19.533;   43.467;48.57143
1090.28;   19.500;  -22.333;   53.900;54.87538
1090.83;   13.500;  -22.667;   45.167;53.31695
1091.37;   19.000;  -24.000;   48.633;59.20147
1091.92;   15.833;  -17.200;   58.267;43.77209
1092.46;   20.067;  -19.533;   45.167;61.20556
1093.00;   20.900;  -19.100;   43.700;63.69427
1093.55;   25.533;  -23.500;   48.467;68.13340
1094.09;   16.533;  -17.867;   36.100;63.74305
1094.64;   17.233;  -20.700;   42.600;59.92628
1095.18;   15.500;  -31.467;   42.833;63.21220
1095.72;   25.833;  -21.333;   39.467;77.57675
1096.27;   11.533;  -22.367;   36.900;57.19910
1096.81;   18.433;  -23.667;   46.633;59.88620
1097.35;   18.233;  -26.733;   35.667;72.06197
1097.90;   12.867;  -18.800;   46.100;48.79301
1098.44;    8.733;  -24.600;   32.233;58.65103
1098.99;   11.333;  -17.233;   32.033;57.98376
1099.53;    4.000;  -20.733;   42.000;39.42614
1100.07;   10.467;  -23.533;   31.500;61.78074

