FES0800
Integration time [ms]:   2.000
Averaging Nr. [scans]: 10
Smoothing Nr. [pixels]: 0
Data measured with spectrometer [name]: 1601059U1
Wave   ;Sample   ;Dark     ;Reference;Transmittance
[nm]   ;[counts] ;[counts] ;[counts] ;[%]

 200.09;   11.024;    9.235;    7.767; 0.00000
 200.69;   -0.512;   -3.148;   22.945;10.10299
 201.30;   -5.088;   12.377;   14.167;-975.66701
 201.90;    1.663;   -6.401;   -3.595;287.35916
 202.50;   -0.393;   17.912;   -6.500; 0.00000
 203.10;    6.126;    2.362;    1.547; 0.00000
 203.71;   -8.991;   -0.470;    0.120; 0.00000
 204.31;   -1.502;   -1.464;    9.603;-0.34673
 204.91;   -7.154;   10.349;   -7.280; 0.00000
 205.51;    3.878;    4.331;   11.271;-6.52419
 206.12;   -4.061;    4.111;    7.710;-227.10668
 206.72;    5.112;    2.286;   -6.235; 0.00000
 207.32;    4.659;    8.717;    2.741; 0.00000
 207.92;   13.846;  -11.551;    5.020;153.26538
 208.53;    8.067;    8.937;    6.054; 0.00000
 209.13;   16.323;   -2.011;    5.543;242.71631
 209.73;   -9.947;    9.615;    5.748; 0.00000
 210.33;    3.594;   -0.792;   -7.486; 0.00000
 210.94;    2.493;   11.871;   10.435; 0.00000
 211.54;   -2.577;    1.007;    7.201;-57.85222
 212.14;   -2.760;   12.121;    3.470; 0.00000
 212.74;    2.951;   -6.804;    2.728;102.33945
 213.34;   -3.249;    4.514;    9.987;-141.86268
 213.95;    5.391;   -9.611;    8.032;85.02819
 214.55;   -7.753;    8.550;   16.081;-216.46005
 215.15;    7.163;   -5.419;   10.047;81.35265
 215.75;   -2.805;   11.845;    0.840; 0.00000
 216.35;   -2.854;    0.186;    3.237;-99.62683
 216.96;    4.206;   11.639;    5.257; 0.00000
 217.56;    1.926;   -0.456;    1.488;122.52019
 218.16;  -12.013;   12.661;    0.044; 0.00000
 218.76;    5.297;   -5.737;   16.160;50.39030
 219.36;    3.386;   16.051;    0.584; 0.00000
 219.97;   -4.321;   -3.296;    8.314;-8.82760
 220.57;   -2.593;    8.794;    4.041; 0.00000
 221.17;  -12.794;  -15.107;   10.033; 9.20052
 221.77;   -3.867;   11.173;    5.900; 0.00000
 222.37;    7.214;    2.695;    0.887; 0.00000
 222.97;  -12.583;   -7.467;   -2.926;-112.64307
 223.58;   -4.863;   -5.362;    5.805; 4.46737
 224.18;   -5.419;    9.904;    2.875; 0.00000
 224.78;    0.430;   -6.864;   -9.887; 0.00000
 225.38;    2.126;   15.862;    7.447; 0.00000
 225.98;   -4.535;    3.764;    4.550; 0.00000
 226.58;    1.098;   10.736;   -3.897; 0.00000
 227.19;    0.207;   11.248;   -1.983; 0.00000
 227.79;    0.560;    7.626;    7.101; 0.00000
 228.39;   -3.843;  -12.257;   -1.663;79.41959
 228.99;   -0.290;    3.485;   10.904;-50.89027
 229.59;   12.279;   -0.878;    5.772;197.83767
 230.19;   -3.046;   17.470;    0.032; 0.00000
 230.79;   10.663;   -4.901;    2.105;222.14261
 231.40;   -9.365;    7.674;    6.361; 0.00000
 232.00;   -5.779;    0.806;    5.240;-148.53295
 232.60;    6.420;    9.406;    8.678; 0.00000
 233.20;    1.941;    7.130;    1.230; 0.00000
 233.80;   -5.803;   10.845;    7.301; 0.00000
 234.40;   10.909;   -7.370;    1.720;201.09606
 235.00;  -13.902;   14.336;    2.703; 0.00000
 235.60;    0.792;    8.916;   -9.449; 0.00000
 236.21;   -4.524;    2.367;    2.227; 0.00000
 236.81;   -2.873;    5.753;    6.148; 0.00000
 237.41;  -10.541;    1.435;    0.500; 0.00000
 238.01;    6.766;  -12.263;   18.092;62.68666
 238.61;   -3.886;   14.859;    5.170; 0.00000
 239.21;    1.910;   -3.261;   -0.720;203.52100
 239.81;  -13.119;    0.004;   -9.025; 0.00000
 240.41;    6.060;    0.926;   -2.699; 0.00000
 241.01;   -2.039;    0.481;   -3.415; 0.00000
 241.62;   -1.328;   -4.789;   12.820;19.65393
 242.22;   -6.120;   -6.969;   -0.267;12.66230
 242.82;    3.239;   -9.380;    0.508;127.61339
 243.42;  -13.431;  -11.063;   -5.185;-40.29331
 244.02;   -0.927;    0.102;   -9.279; 0.00000
 244.62;    9.735;   -2.944;    4.802;163.67115
 245.22;   -2.166;    2.401;   -0.882; 0.00000
 245.82;   -5.844;    8.052;   -5.065; 0.00000
 246.42;    4.195;   -8.919;   -8.143; 0.00000
 247.02;   -0.146;    9.206;    7.350; 0.00000
 247.62;    2.953;  -10.503;    6.790;77.81274
 248.22;  -15.455;   14.058;   -0.782; 0.00000
 248.82;    3.680;   -3.669;   -3.967; 0.00000
 249.43;   15.005;    5.638;   -1.305; 0.00000
 250.03;    5.963;    5.399;    4.505; 0.00000
 250.63;   -0.409;    2.807;   -0.009; 0.00000
 251.23;    7.515;   -7.714;    3.588;134.74271
 251.83;   -5.886;    7.959;    7.070; 0.00000
 252.43;    1.117;    1.578;   -0.949; 0.00000
 253.03;    0.480;    7.549;    6.191; 0.00000
 253.63;  -15.098;   -2.199;    4.508;-192.31933
 254.23;  -10.065;   -0.508;    0.920;-669.21951
 254.83;    4.566;  -14.418;   -1.230;143.95333
 255.43;    0.069;   -3.481;   -4.243; 0.00000
 256.03;   -3.174;   -7.456;  -10.512; 0.00000
 256.63;   -2.401;   11.427;    5.404; 0.00000
 257.23;   -5.663;  -15.017;   -2.217;73.08187
 257.83;   -0.881;   15.551;   -0.506; 0.00000
 258.43;    7.248;    0.132;    2.122;357.44842
 259.03;   -8.851;    2.005;   15.765;-78.89472
 259.63;    3.556;   -9.821;    4.254;95.04265
 260.23;   -0.014;    0.069;    4.343;-1.94805
 260.83;   13.207;    1.048;   -1.483; 0.00000
 261.43;    2.274;    6.684;    6.924; 0.00000
 262.03;   -0.139;  -13.047;    7.020;64.32316
 262.63;    2.104;   11.556;   -2.046; 0.00000
 263.23;   -1.005;   -0.137;   12.698;-6.75953
 263.83;   -5.080;    3.151;    6.856;-222.20509
 264.43;    7.693;    6.281;    6.595; 0.00000
 265.03;  -15.344;   -2.739;   13.495;-77.64443
 265.63;    8.212;   -5.805;    8.725;96.46943
 266.23;   -0.442;    8.026;    0.640; 0.00000
 266.83;   -1.131;   -9.063;    5.215;55.55124
 267.43;   -6.287;    2.668;   -1.532; 0.00000
 268.03;    5.710;   -7.669;  -14.819; 0.00000
 268.63;  -10.318;   -1.704;   13.277;-57.49737
 269.23;   -1.132;   -5.518;    1.131;65.95830
 269.83;    2.159;   -8.465;    2.200;99.61981
 270.43;   12.744;   -2.388;   12.994;98.37714
 271.03;   -3.298;    4.210;    8.068;-194.59620
 271.63;   -8.625;    9.357;    5.167; 0.00000
 272.23;   -6.156;   -0.533;   -3.683; 0.00000
 272.83;   19.644;   -6.333;    9.217;167.05773
 273.43;   -7.077;   -5.375;    1.360;-25.26801
 274.03;    7.825;    5.671;   -1.455; 0.00000
 274.63;   -8.820;    5.431;    8.133;-527.58627
 275.23;   12.072;  -11.989;   19.520;76.36227
 275.83;   -5.376;    3.598;   -4.197; 0.00000
 276.43;   -2.415;   10.451;   -1.478; 0.00000
 277.02;   -9.520;   15.131;    5.433; 0.00000
 277.62;  -10.055;  -10.942;    7.418; 4.82903
 278.22;   -7.124;    5.985;    2.785; 0.00000
 278.82;   -9.630;  -12.589;   11.558;12.25586
 279.42;   -3.976;    4.480;    1.344; 0.00000
 280.02;    1.555;  -10.794;    6.711;70.54572
 280.62;   -2.958;  -10.179;   12.931;31.24592
 281.22;    8.005;    0.884;   12.273;62.52911
 281.82;    3.402;   19.992;   -0.990; 0.00000
 282.42;   -0.172;   -7.238;   13.708;33.73019
 283.02;   -9.875;    4.389;   -3.496; 0.00000
 283.62;    4.664;   -3.391;   -4.635; 0.00000
 284.22;   -9.035;   17.546;    0.591; 0.00000
 284.81;   -7.118;    2.314;   11.835;-99.05654
 285.41;   -9.161;    5.420;    2.108; 0.00000
 286.01;    3.946;   -6.414;   13.037;53.26102
 286.61;  -13.100;    8.637;    1.564; 0.00000
 287.21;    3.036;   -0.835;   -0.437; 0.00000
 287.81;   -5.548;   -5.313;    4.830;-2.32126
 288.41;   -4.103;   -0.137;   12.360;-31.73921
 289.01;   -5.398;    9.201;    7.508; 0.00000
 289.61;   -1.943;   -2.929;    0.555;28.31317
 290.20;  -10.301;   10.527;   -0.696; 0.00000
 290.80;    1.584;   -7.395;    0.198;118.25115
 291.40;   -8.271;   -3.964;    1.051;-85.87303
 292.00;    0.397;  -22.673;   -9.458;174.57088
 292.60;   -5.014;   -6.367;    0.225;20.52649
 293.20;   11.651;    0.996;    8.328;145.32279
 293.80;  -11.929;    7.884;    1.101; 0.00000
 294.40;    8.513;   -6.596;    1.585;184.67541
 294.99;  -11.332;   -4.281;    8.095;-56.97683
 295.59;   -2.644;  -10.630;   -2.506;98.29601
 296.19;    2.222;   16.970;    3.722; 0.00000
 296.79;    6.453;    6.597;    0.790; 0.00000
 297.39;   -2.852;   -6.759;   -2.217;86.03595
 297.99;    7.426;   -2.656;    4.888;133.63971
 298.59;   -6.138;    5.490;    6.045; 0.00000
 299.18;    3.935;    3.119;    7.785;17.48397
 299.78;   -9.592;    5.521;    2.160; 0.00000
 300.38;   -2.368;   -0.900;    4.157;-29.03140
 300.98;    5.812;    3.968;    8.607;39.75271
 301.58;    4.530;   -9.409;    1.335;129.73093
 302.18;   -1.592;   -0.279;    3.860;-31.72539
 302.77;    1.674;   -1.798;   -2.917; 0.00000
 303.37;  -10.258;    6.358;    3.895; 0.00000
 303.97;   -5.089;   -0.996;    5.024;-67.97290
 304.57;   -5.517;   -7.649;    1.161;24.20231
 305.17;  -10.191;   -3.752;   -1.422;-276.36777
 305.76;  -11.704;    5.836;    9.141;-530.69851
 306.36;   -1.343;    0.143;    4.937;-31.01486
 306.96;   -8.722;    0.413;   -0.988; 0.00000
 307.56;   -4.094;    5.039;   -3.943; 0.00000
 308.16;   -1.852;   10.323;    7.424; 0.00000
 308.75;    2.923;   -5.993;   -3.899;425.70496
 309.35;   -2.585;    6.214;   -3.246; 0.00000
 309.95;    2.219;   -8.385;    7.077;68.58121
 310.55;    1.305;   -0.771;   -5.803; 0.00000
 311.15;   13.983;   -6.086;    0.297;314.42060
 311.74;  -12.736;    1.454;  -10.610; 0.00000
 312.34;    1.769;  -10.981;   20.057;41.07874
 312.94;   -0.860;   14.693;    4.051; 0.00000
 313.54;    0.641;   -6.988;    0.471;102.27958
 314.13;   -8.986;    5.959;   -3.830; 0.00000
 314.73;   -7.162;   -0.171;    0.807; 0.00000
 315.33;   -9.780;   11.488;   -2.180; 0.00000
 315.93;   -9.875;   -5.747;    4.387;-40.73292
 316.53;    2.953;    4.243;    0.114; 0.00000
 317.12;    5.623;   -6.593;   -7.799; 0.00000
 317.72;   -3.648;   11.642;    5.552; 0.00000
 318.32;    6.328;   -5.074;    1.191;181.99572
 318.92;    9.789;    2.089;    2.971; 0.00000
 319.51;   -1.872;    5.308;    7.032;-416.47986
 320.11;    0.364;   -0.064;  -10.169; 0.00000
 320.71;    3.546;  -10.869;   -5.939;292.40873
 321.30;   -2.084;    0.841;    4.172;-87.81740
 321.90;  -10.608;   -2.856;    6.217;-85.44638
 322.50;   -1.328;   10.275;    5.802; 0.00000
 323.10;    3.700;   -4.899;    8.747;63.01641
 323.69;   -5.486;    9.459;   -7.330; 0.00000
 324.29;    1.584;   -1.222;    5.380;42.49914
 324.89;   -9.484;   11.241;   -4.728; 0.00000
 325.49;   -2.964;   -9.471;   -6.055;190.46465
 326.08;   -8.701;   19.109;   -3.055; 0.00000
 326.68;   -7.757;   -5.860;   -5.402; 0.00000
 327.28;   -1.898;    6.447;    5.332; 0.00000
 327.87;   -6.933;   -0.690;    8.435;-68.41554
 328.47;   -6.313;   -0.094;    2.768;-217.32041
 329.07;    3.310;   -5.597;   -1.338;209.11437
 329.67;   -0.597;    7.456;   10.892;-234.35606
 330.26;   -0.938;   -9.028;    4.287;60.76030
 330.86;  -13.349;   16.051;   -3.349; 0.00000
 331.46;   -5.887;    3.723;   -9.009; 0.00000
 332.05;    2.806;    0.421;   18.198;13.41977
 332.65;   -1.098;  -11.899;   -9.192;398.94800
 333.25;   -6.325;    8.130;    3.348; 0.00000
 333.84;    2.545;    3.422;    4.201; 0.00000
 334.44;    4.355;   -0.475;   -0.783; 0.00000
 335.04;    4.809;  -13.142;    3.885;105.42784
 335.63;   -5.860;   17.039;  -14.025; 0.00000
 336.23;   -4.159;   -9.670;    6.676;33.71178
 336.83;   -3.717;    3.869;   15.566;-64.85920
 337.42;   -3.208;    0.908;   11.599;-38.49622
 338.02;  -24.251;   12.797;    2.913; 0.00000
 338.62;   -1.758;   -7.115;    6.361;39.75201
 339.21;  -11.650;   12.961;   -6.804; 0.00000
 339.81;  -15.430;    7.111;    6.405; 0.00000
 340.41;    4.443;    8.313;    4.926; 0.00000
 341.00;    3.854;   -0.484;    2.403;150.25665
 341.60;    2.259;    5.790;    8.169;-148.44947
 342.20;    2.493;    3.782;    6.689;-44.32370
 342.79;    4.129;   16.746;    7.105; 0.00000
 343.39;    7.901;    2.392;    3.295; 0.00000
 343.98;  -13.677;   15.626;   -0.947; 0.00000
 344.58;    1.897;    4.192;    2.172; 0.00000
 345.18;   -6.544;    8.317;    8.065; 0.00000
 345.77;   -6.100;    1.701;    2.293; 0.00000
 346.37;    1.948;   14.114;    2.911; 0.00000
 346.97;   -9.557;   -4.823;    5.062;-47.88429
 347.56;   -0.760;   17.185;  -10.601; 0.00000
 348.16;   -4.533;    0.456;    5.159;-106.06133
 348.75;   -7.189;    8.695;    6.211; 0.00000
 349.35;    2.624;   -2.956;    5.973;62.49142
 349.95;    0.652;   17.225;    7.340; 0.00000
 350.54;   -7.852;    9.460;    5.435; 0.00000
 351.14;    1.888;   19.262;   -1.901; 0.00000
 351.73;   -2.583;   15.179;    6.345; 0.00000
 352.33;  -13.274;    8.791;    8.159; 0.00000
 352.93;   -2.386;    3.114;   14.139;-49.89480
 353.52;    4.633;   20.111;   -4.490; 0.00000
 354.12;    5.998;    9.801;   10.532; 0.00000
 354.71;   -8.126;    8.022;    0.435; 0.00000
 355.31;   -1.824;    2.431;    7.256;-88.18113
 355.90;    4.205;   18.921;    9.283; 0.00000
 356.50;   -3.421;   -0.049;    8.685;-38.59638
 357.10;    2.107;    7.576;   16.229;-63.20512
 357.69;    2.229;    6.809;    9.341;-180.92316
 358.29;    2.386;   15.025;    1.112; 0.00000
 358.88;  -10.109;    6.854;    1.362; 0.00000
 359.48;   -5.029;   -2.334;   17.789;-13.39330
 360.07;   -3.654;   -0.568;   16.108;-18.50703
 360.67;   -7.335;    0.828;   13.279;-65.56426
 361.26;   -2.361;   -3.897;   11.296;10.10861
 361.86;  -11.063;    8.584;    9.676;-1799.62021
 362.46;   -2.350;    4.170;   18.056;-46.94691
 363.05;   -2.315;    8.615;   11.752;-348.51722
 363.65;    3.405;    3.766;   14.661;-3.31455
 364.24;   -7.311;    3.771;   13.659;-112.07838
 364.84;   -1.323;   -7.578;   18.958;23.57209
 365.43;    3.018;    6.706;   27.563;-17.68366
 366.03;    4.792;   -2.237;   34.722;19.01843
 366.62;   -9.704;    7.900;   31.070;-75.97794
 367.22;    7.198;   -3.099;   30.432;30.70963
 367.81;  -14.452;    0.405;   41.412;-36.23067
 368.41;    1.101;   -6.326;   30.936;19.93057
 369.00;  -15.851;    1.487;   43.153;-41.61377
 369.60;   -6.655;    2.905;   36.689;-28.29598
 370.19;   -7.028;    6.739;   48.332;-33.10018
 370.79;    6.146;   18.796;   44.990;-48.29193
 371.38;   -2.707;    9.318;   60.706;-23.40001
 371.98;    2.728;   -2.809;   45.220;11.52846
 372.57;   -9.053;   10.169;   61.233;-37.64265
 373.17;   -0.241;   -8.246;   68.052;10.49151
 373.76;  -16.291;   10.341;   62.073;-51.47866
 374.36;    1.725;   10.435;   69.775;-14.67886
 374.95;   -9.171;   17.146;   75.605;-45.01785
 375.55;   -6.263;    4.584;   79.276;-14.52274
 376.14;  -14.166;    8.402;   83.612;-30.00677
 376.74;  -13.989;    0.041;   92.235;-15.21788
 377.33;  -12.257;    9.540;   99.545;-24.21801
 377.93;    0.119;    8.261;  113.348;-7.74813
 378.52;  -13.423;   19.295;  105.939;-37.76200
 379.11;   -0.341;   -0.419;  137.570; 0.05666
 379.71;  -11.302;   14.665;  124.215;-23.70279
 380.30;    6.207;    1.130;  154.405; 3.31207
 380.90;    0.620;   17.116;  155.532;-11.91784
 381.49;    6.693;   -4.164;  179.065; 5.92536
 382.09;  -14.750;   10.542;  196.937;-13.56939
 382.68;    3.331;    5.974;  194.385;-1.40231
 383.28;   14.770;   10.457;  218.329; 2.07499
 383.87;    1.952;   -2.648;  246.259; 1.84817
 384.46;    0.492;    6.327;  253.505;-2.36049
 385.06;   -2.976;    0.944;  250.373;-1.57162
 385.65;    9.284;    9.488;  276.833;-0.07636
 386.25;    4.738;    9.330;  305.553;-1.55020
 386.84;    9.796;    8.609;  315.569; 0.38644
 387.44;   15.234;   -3.189;  340.172; 5.36563
 388.03;   12.296;    7.309;  360.369; 1.41229
 388.62;   26.853;   -0.039;  404.219; 6.65214
 389.22;   27.865;   -4.008;  406.662; 7.76123
 389.81;   38.274;    1.558;  420.752; 8.75870
 390.41;   41.750;    4.870;  457.956; 8.13989
 391.00;   46.633;   -3.462;  464.229;10.71124
 391.59;   44.786;    7.825;  497.112; 7.55401
 392.19;   52.635;   -4.362;  461.991;12.22185
 392.78;   55.763;   18.928;  516.618; 7.40127
 393.38;   78.629;    3.582;  519.522;14.54565
 393.97;   84.890;   16.862;  517.060;13.60016
 394.56;  113.948;   -4.804;  548.352;21.46801
 395.16;  110.576;    8.068;  590.120;17.61150
 395.75;  112.212;   -2.005;  567.672;20.04942
 396.34;   92.978;   -1.405;  570.000;16.51768
 396.94;  102.051;   -2.948;  598.498;17.45775
 397.53;  110.124;   14.108;  630.756;15.57068
 398.13;  149.160;   -4.428;  669.272;22.79769
 398.72;  185.126;   10.191;  701.259;25.31381
 399.31;  215.372;    5.057;  688.790;30.75976
 399.91;  199.715;   13.015;  716.200;26.55068
 400.50;  192.583;    7.769;  739.566;25.25474
 401.09;  155.372;   10.039;  738.732;19.94433
 401.69;  150.348;   -4.204;  743.052;20.68255
 402.28;  169.587;    8.607;  776.715;20.95804
 402.87;  206.957;    5.190;  804.008;25.25822
 403.47;  273.146;    8.032;  830.308;32.24148
 404.06;  340.866;    8.119;  840.980;39.95221
 404.65;  311.850;    3.670;  869.756;35.58314
 405.25;  317.953;   -4.739;  932.919;34.41466
 405.84;  231.461;    7.064;  921.373;24.54285
 406.43;  188.701;   -3.044;  937.678;20.38273
 407.03;  182.783;   12.569;  922.766;18.70072
 407.62;  207.237;   -0.680;  957.993;21.68793
 408.21;  285.886;   14.525;  982.512;28.03351
 408.81;  391.910;   -3.978; 1075.768;36.66489
 409.40;  471.753;   17.361; 1090.419;42.34551
 409.99;  537.439;   -8.097; 1107.296;48.90972
 410.58;  484.668;    3.811; 1119.743;43.09019
 411.18;  418.971;    0.484; 1148.748;36.44518
 411.77;  326.243;    8.459; 1122.603;28.52273
 412.36;  289.496;   -4.163; 1123.088;26.05095
 412.96;  307.987;   12.125; 1147.273;26.06374
 413.55;  363.453;    0.579; 1149.078;31.59548
 414.14;  459.870;    1.293; 1156.746;39.68806
 414.73;  624.211;   -8.405; 1257.111;49.98876
 415.33;  694.864;   20.855; 1195.136;57.39756
 415.92;  740.903;   -8.616; 1299.158;57.31261
 416.51;  604.857;    4.617; 1254.726;48.01504
 417.11;  490.280;    6.296; 1255.562;38.74148
 417.70;  410.533;   11.456; 1315.388;30.60569
 418.29;  388.494;   -2.055; 1295.725;30.09359
 418.88;  398.696;    4.355; 1220.246;32.43228
 419.48;  456.964;   -0.227; 1322.995;34.55132
 420.07;  574.188;   13.880; 1319.358;42.91979
 420.66;  750.975;    0.658; 1334.313;56.26021
 421.25;  883.891;    4.290; 1400.379;63.00464
 421.85;  956.346;    4.459; 1408.126;67.81431
 422.44;  904.210;   11.922; 1377.468;65.34293
 423.03;  812.519;   -6.085; 1376.623;59.20290
 423.62;  790.406;   -5.956; 1434.283;55.29376
 424.21;  768.293;   -5.819; 1491.942;51.68463
 424.81;  818.244;    1.168; 1499.463;54.53370
 425.40;  933.116;   -9.640; 1540.178;60.83011
 425.99; 1029.629;    7.882; 1554.922;66.04528
 426.58; 1186.783;   -0.613; 1684.525;70.46281
 427.18; 1129.241;   22.367; 1628.340;68.92228
 427.77;  958.052;   -7.812; 1611.176;59.65849
 428.36;  876.791;   14.472; 1689.520;51.48025
 428.95;  767.646;   -4.232; 1753.525;43.91264
 429.54;  689.771;    0.402; 1809.106;38.11395
 430.14;  671.223;   -7.629; 1734.131;38.97507
 430.73;  704.826;   -2.655; 1746.035;40.45778
 431.32;  852.246;  -11.541; 1878.226;45.70866
 431.91;  940.818;    2.006; 1712.263;54.89301
 432.50; 1184.055;   -1.729; 1876.741;63.12503
 433.10; 1344.000;   14.728; 1841.812;72.75375
 433.69; 1377.095;  -12.055; 1866.586;73.94441
 434.28; 1266.145;   11.741; 1875.106;67.31927
 434.87; 1138.690;   -2.583; 1925.436;59.19406
 435.46;  988.881;    1.605; 1921.122;51.43355
 436.05;  895.867;   -3.962; 1959.201;45.83570
 436.65;  761.954;    4.970; 1812.179;41.88688
 437.24;  857.791;   -4.565; 1872.056;45.95260
 437.83;  934.798;   10.964; 1829.168;50.81027
 438.42; 1060.534;   -8.399; 1818.765;58.50228
 439.01; 1263.050;    0.206; 1895.373;66.63497
 439.60; 1374.547;  -10.432; 1904.686;72.31819
 440.19; 1365.414;   12.160; 1959.916;69.47760
 440.79; 1291.032;  -10.781; 2047.762;63.23953
 441.38; 1041.341;    0.012; 1963.418;53.03687
 441.97;  912.448;   -5.458; 1990.429;45.98990
 442.56;  830.256;    6.035; 2050.323;40.31823
 443.15;  732.095;  -11.755; 1969.886;37.53707
 443.74;  755.929;    2.309; 2031.641;37.13638
 444.33;  777.830;   -2.100; 2002.942;38.89844
 444.93;  909.953;    1.915; 2042.595;44.49680
 445.52; 1024.824;   -2.620; 1975.591;51.93804
 446.11; 1181.201;   17.610; 2004.154;58.57362
 446.70; 1513.452;   -9.176; 2156.094;70.32046
 447.29; 1629.182;    9.223; 2164.442;75.16447
 447.88; 1482.474;  -11.533; 2012.412;73.81660
 448.47; 1351.540;   -9.261; 2035.475;66.55142
 449.06; 1301.133;   -4.608; 2246.805;57.99651
 449.65; 1145.362;    4.854; 2223.428;51.40726
 450.24; 1078.321;   -1.875; 2216.045;48.70311
 450.84; 1048.365;    7.555; 2234.198;46.74348
 451.43; 1164.537;    0.657; 2333.411;49.89296
 452.02; 1238.944;    6.831; 2339.099;52.82896
 452.61; 1333.364;    0.082; 2219.555;60.07202
 453.20; 1468.251;   15.515; 2262.034;64.66610
 453.79; 1641.048;   -0.240; 2374.388;69.11770
 454.38; 1698.828;   -6.655; 2528.796;67.26544
 454.97; 1473.682;  -10.259; 2426.801;60.89063
 455.56; 1296.807;    2.448; 2527.864;51.25329
 456.15; 1187.768;   -9.635; 2634.419;45.28662
 456.74;  917.629;   11.118; 2544.739;35.77924
 457.33;  812.335;   -7.108; 2562.766;31.88648
 457.92;  765.659;   -0.947; 2623.405;29.21123
 458.51;  747.898;   -2.527; 2647.367;28.31905
 459.10;  752.137;   -2.334; 2574.371;29.28048
 459.69;  776.043;   -2.269; 2607.738;29.82030
 460.28;  854.095;   -1.137; 2552.245;33.49408
 460.88;  979.234;   -6.281; 2706.724;36.32557
 461.47; 1119.740;    3.403; 2660.958;42.00618
 462.06; 1343.291;  -12.774; 2701.396;49.96240
 462.65; 1558.504;   -1.571; 2757.935;56.53456
 463.24; 1813.427;   11.163; 2857.055;63.32863
 463.83; 1886.279;    7.741; 2727.878;69.06042
 464.42; 2088.119;  -19.121; 2802.659;74.67768
 465.01; 2136.129;   -1.773; 2814.399;75.91518
 465.60; 2422.037;   -5.843; 2974.911;81.45187
 466.19; 2450.995;    4.063; 3042.045;80.54465
 466.78; 2524.470;   -7.844; 3106.282;81.31701
 467.37; 2426.190;    2.844; 3135.455;77.35868
 467.96; 2113.053;   -7.585; 3066.695;68.97997
 468.55; 1691.450;    5.496; 2981.267;56.65603
 469.14; 1335.161;  -18.355; 3091.668;43.52111
 469.73;  983.470;   -3.135; 3183.981;30.95602
 470.32;  722.030;   -1.527; 3270.277;22.11493
 470.91;  536.047;    6.386; 3324.845;15.96104
 471.50;  381.242;  -20.379; 3337.278;11.96133
 472.09;  272.683;   -4.585; 3408.544; 8.12359
 472.67;  221.646;   -9.905; 3530.244; 6.54071
 473.26;  172.325;   -1.792; 3538.209; 4.91856
 473.85;  131.925;  -22.192; 3501.609; 4.37360
 474.44;  116.372;   -0.161; 3645.185; 3.19677
 475.03;  105.647;  -20.114; 3649.045; 3.42751
 475.62;   72.292;   15.099; 3565.939; 1.61068
 476.21;   69.914;  -20.468; 3986.751; 2.25548
 476.80;   54.916;    6.496; 3917.295; 1.23810
 477.39;   60.899;  -11.345; 4075.869; 1.76756
 477.98;   54.085;    2.333; 4242.564; 1.22049
 478.57;   66.406;   -9.589; 4381.038; 1.73083
 479.16;   66.605;   -0.580; 4333.237; 1.55024
 479.75;   58.519;  -18.457; 4430.942; 1.73005
 480.34;   68.294;    0.908; 4500.461; 1.49761
 480.93;   76.194;   -0.356; 4444.078; 1.72236
 481.52;   81.716;    5.996; 4502.495; 1.68397
 482.11;  117.803;   -4.880; 4547.475; 2.69494
 482.69;  147.537;   -4.498; 4387.888; 3.46134
 483.28;  199.864;   -1.782; 4544.272; 4.43562
 483.87;  344.946;   -6.187; 4873.402; 7.19595
 484.46;  463.631;   -8.318; 4880.037; 9.65455
 485.05;  509.564;   -0.282; 4927.372;10.34662
 485.64;  477.586;   -0.130; 5224.989; 9.14268
 486.23;  355.486;    5.988; 5118.148; 6.83660
 486.82;  204.453;   -2.057; 5085.614; 4.05904
 487.41;  142.706;   14.375; 5352.521; 2.40403
 488.00;   99.003;   -5.844; 5601.292; 1.86988
 488.58;   63.651;    5.969; 5143.309; 1.12279
 489.17;   58.694;  -10.974; 5092.619; 1.36507
 489.76;   47.473;    2.230; 5377.187; 0.84174
 490.35;   41.930;   -2.609; 5460.135; 0.81532
 490.94;   25.335;   -3.444; 5440.249; 0.52866
 491.53;   40.116;   -7.077; 5225.314; 0.90194
 492.12;   19.986;   -1.594; 5099.107; 0.42307
 492.70;   39.695;   -4.682; 5479.521; 0.80918
 493.29;   28.628;    2.990; 5752.374; 0.44592
 493.88;   35.924;   -5.065; 5549.867; 0.73789
 494.47;   22.410;    0.749; 5521.987; 0.39232
 495.06;   34.155;  -13.375; 5238.817; 0.90496
 495.65;   29.402;   -9.453; 5260.032; 0.73736
 496.24;   46.892;   -5.956; 5717.017; 0.92343
 496.82;   61.353;    3.225; 5721.355; 1.01657
 497.41;   69.750;   -9.513; 5688.568; 1.39105
 498.00;   91.683;   -0.903; 5863.485; 1.57880
 498.59;   91.763;   -5.255; 5637.829; 1.71923
 499.18;  120.950;  -11.958; 5722.191; 2.31783
 499.77;  196.317;  -15.222; 5675.298; 3.71739
 500.35;  269.355;    2.989; 5659.599; 4.70894
 500.94;  394.992;    3.462; 5496.475; 7.12778
 501.53;  701.721;   -1.521; 5576.021;12.60845
 502.12; 1238.804;  -12.871; 5857.135;21.32323
 502.71; 2077.282;   -7.377; 5678.242;36.66547
 503.29; 2963.424;   -8.174; 5760.668;51.51118
 503.88; 3321.622;   -7.184; 5705.446;58.27098
 504.47; 2915.525;   -7.283; 5691.069;51.29217
 505.06; 2252.311;   -3.296; 5597.871;40.27031
 505.65; 1826.624;   -3.274; 6029.068;30.33480
 506.23; 1400.790;    1.762; 5753.914;24.32183
 506.82; 1124.324;   -7.474; 5641.268;20.03630
 507.41;  997.150;   -7.413; 5554.368;18.06190
 508.00;  942.564;  -10.264; 5467.431;17.39468
 508.58;  893.117;    1.096; 5358.157;16.65131
 509.17;  910.436;   -7.389; 5678.687;16.14163
 509.76;  968.534;    0.328; 5753.284;16.82972
 510.35;  975.555;  -10.857; 5622.275;17.51090
 510.93; 1018.482;   -6.741; 5644.859;18.14039
 511.52; 1144.899;  -11.727; 5825.628;19.81421
 512.11; 1224.751;    3.760; 6106.511;20.00723
 512.70; 1334.347;   -4.796; 6007.004;22.27524
 513.28; 1373.539;   16.066; 5748.932;23.67878
 513.87; 1493.946;   -7.369; 5901.861;25.40626
 514.46; 1614.718;   -6.594; 5992.517;27.02588
 515.05; 1801.716;   -5.659; 5973.972;30.22552
 515.63; 1924.333;   -5.590; 5808.164;33.19581
 516.22; 2172.033;  -15.890; 5923.864;36.83525
 516.81; 2334.351;   -6.349; 5662.451;41.29092
 517.39; 2622.969;    2.292; 5761.838;45.50144
 517.98; 3109.794;   -7.837; 6086.137;51.15924
 518.57; 3706.755;   -0.157; 6288.875;58.94249
 519.16; 4141.534;   -3.972; 6247.084;66.31690
 519.74; 4461.384;  -14.422; 6203.880;71.97794
 520.33; 4974.554;    6.416; 6382.357;77.92009
 520.92; 4856.953;   -4.157; 5993.814;81.04592
 521.50; 4724.125;    5.335; 5836.428;80.92463
 522.09; 4768.638;   -3.807; 5987.089;79.66162
 522.68; 4681.388;  -11.512; 6113.209;76.62225
 523.26; 4691.900;  -18.299; 6367.147;73.76461
 523.85; 4680.220;   -2.394; 6504.778;71.96081
 524.44; 4201.380;  -15.741; 6020.698;69.86108
 525.03; 4071.625;  -11.392; 5989.809;68.03666
 525.61; 4169.549;   -7.013; 6273.607;66.49920
 526.20; 4042.082;   -3.959; 6092.901;66.36270
 526.79; 4188.339;  -15.289; 6119.910;68.51658
 527.37; 4257.509;   -1.724; 6083.944;69.98793
 527.96; 4366.535;  -12.844; 6073.502;71.95415
 528.54; 4622.968;  -10.099; 6306.637;73.34590
 529.13; 4553.168;   -6.081; 6022.595;75.62603
 529.72; 4377.455;   -5.193; 5784.358;75.69928
 530.30; 4465.920;   -8.912; 5926.420;75.39312
 530.89; 4388.829;    0.781; 5884.675;74.57727
 531.48; 4141.609;   -8.588; 5631.361;73.58572
 532.06; 4063.999;  -14.091; 5675.145;71.68080
 532.65; 4018.393;  -15.747; 5709.277;70.46503
 533.24; 3731.930;   -7.409; 5551.735;67.26465
 533.82; 3561.912;   -9.832; 5496.807;64.86251
 534.41; 3487.027;  -11.383; 5413.931;64.48309
 534.99; 3400.384;    1.024; 5394.104;63.03189
 535.58; 3392.232;   -0.427; 5453.438;62.20650
 536.17; 3439.844;  -22.451; 5379.158;64.09748
 536.75; 3346.704;   -5.189; 5176.977;64.68132
 537.34; 3573.539;  -11.971; 5322.168;67.21816
 537.92; 3640.815;   -8.686; 5308.054;68.64172
 538.51; 3751.277;  -14.578; 5229.111;71.81691
 539.10; 4071.169;   -2.617; 5426.239;75.03949
 539.68; 4001.736;   -8.671; 5092.945;78.61052
 540.27; 3807.080;  -10.187; 4695.574;81.11902
 540.85; 4004.714;   -9.850; 4733.310;84.63902
 541.44; 4289.829;   -3.682; 4967.492;86.36814
 542.03; 4303.411;  -19.424; 4931.905;87.30655
 542.61; 4390.155;    0.207; 4958.558;88.53646
 543.20; 4425.946;  -16.851; 4974.420;89.01134
 543.78; 4042.489;    2.289; 4588.571;88.09315
 544.37; 3707.265;  -18.418; 4326.508;85.74789
 544.95; 3827.741;   -2.524; 4544.154;84.24317
 545.54; 3750.075;   -1.952; 4444.707;84.37856
 546.12; 3825.165;   -6.954; 4621.491;82.79495
 546.71; 3838.378;   -8.487; 4758.612;80.69614
 547.30; 3751.691;   -0.729; 4720.274;79.48354
 547.88; 3919.830;  -20.391; 4792.894;81.86136
 548.47; 3750.263;   -1.337; 4507.988;83.19648
 549.05; 3644.317;  -10.786; 4408.715;82.70397
 549.64; 3679.344;   -7.187; 4448.841;82.73134
 550.22; 3723.179;  -11.814; 4385.455;84.93893
 550.81; 3684.293;   13.235; 4361.218;84.43128
 551.39; 3765.573;  -13.152; 4443.745;84.78376
 551.98; 4004.616;   -9.977; 4568.214;87.68951
 552.56; 4070.194;  -15.037; 4670.537;87.18742
 553.15; 4202.371;  -15.834; 4832.342;87.00602
 553.73; 4287.193;  -16.619; 4913.395;87.29817
 554.32; 4253.162;   -0.028; 4936.387;86.15950
 554.90; 4097.854;  -11.948; 4736.774;86.54544
 555.49; 3875.911;  -15.124; 4537.605;85.46598
 556.07; 3965.145;   -3.542; 4725.418;83.92303
 556.66; 4048.856;   -7.566; 4821.877;83.99358
 557.24; 3862.347;  -10.396; 4619.304;83.64998
 557.83; 3637.661;   -4.255; 4498.168;80.88792
 558.41; 3863.534;  -10.436; 4786.501;80.75924
 559.00; 3907.459;    0.599; 4856.482;80.45622
 559.58; 3982.985;   -4.358; 4967.224;80.20271
 560.17; 3842.321;   -3.312; 4716.581;81.47713
 560.75; 3529.147;   -6.377; 4388.062;80.45449
 561.34; 3775.803;   -8.344; 4664.692;80.97833
 561.92; 3981.943;    4.031; 4875.638;81.65502
 562.50; 3850.128;    2.408; 4708.932;81.75289
 563.09; 3827.043;   -7.260; 4649.198;82.34378
 563.67; 3684.854;   -5.284; 4535.757;81.26196
 564.26; 3733.624;  -10.256; 4582.827;81.51128
 564.84; 4029.589;    3.371; 4828.612;83.44077
 565.43; 3907.229;  -13.073; 4633.253;84.37425
 566.01; 3856.424;   -6.438; 4616.285;83.56248
 566.60; 4117.768;  -15.117; 4943.778;83.34286
 567.18; 4089.148;   -9.286; 4874.864;83.91294
 567.76; 4080.468;  -10.099; 4803.337;84.98227
 568.35; 3958.174;   -5.361; 4659.347;84.96856
 568.93; 3873.243;  -15.042; 4551.257;85.15179
 569.52; 3783.806;  -10.997; 4396.639;86.09611
 570.10; 3717.794;   -9.156; 4314.878;86.19150
 570.68; 3606.132;    2.073; 4214.938;85.54887
 571.27; 3716.220;   -8.594; 4291.378;86.62414
 571.85; 3861.753;   -9.903; 4371.890;88.35781
 572.44; 3643.711;  -19.506; 4126.364;88.35822
 573.02; 3613.698;   -2.136; 4089.268;88.37637
 573.60; 3692.883;  -20.031; 4229.420;87.37397
 574.19; 3826.472;  -11.625; 4333.202;88.33716
 574.77; 3822.452;   -7.831; 4144.671;92.24037
 575.36; 3517.728;   -6.828; 3770.115;93.31769
 575.94; 3391.896;   -7.791; 3775.922;89.85054
 576.52; 3628.217;  -11.686; 4105.015;88.41796
 577.11; 3789.971;  -15.934; 4236.542;89.49856
 577.69; 3507.529;   -4.701; 3920.034;89.48961
 578.27; 3398.045;  -18.242; 3937.018;86.37325
 578.86; 3481.841;    0.484; 4067.852;85.59236
 579.44; 3515.372;  -11.725; 4129.002;85.18061
 580.02; 3428.335;   -4.681; 4084.885;83.94573
 580.61; 3520.624;   -8.974; 4212.068;83.61913
 581.19; 3392.490;   -5.402; 4111.431;82.53655
 581.77; 3400.428;   -2.392; 4126.532;82.41420
 582.36; 3257.185;   -6.485; 3968.505;82.10511
 582.94; 3223.655;  -14.475; 3920.117;82.29901
 583.52; 3335.159;   -6.883; 3992.441;83.56518
 584.11; 3461.487;    0.515; 4041.067;85.65592
 584.69; 3453.335;   -5.081; 4087.185;84.51103
 585.27; 3526.667;   -7.372; 4088.894;86.27464
 585.86; 3382.389;   -7.293; 3897.430;86.80981
 586.44; 3606.109;   -9.588; 4101.461;87.95071
 587.02; 3488.998;   -5.818; 3902.227;89.42621
 587.61; 3315.995;  -23.064; 3662.679;90.59390
 588.19; 3384.496;   -5.564; 3754.141;90.16825
 588.77; 3359.175;  -24.124; 3763.525;89.32451
 589.36; 3440.478;  -14.096; 3848.052;89.44694
 589.94; 3556.476;   -7.969; 3935.210;90.39524
 590.52; 3527.764;   -1.164; 3861.331;91.36395
 591.10; 3425.818;   -4.794; 3787.117;90.47186
 591.69; 3448.469;    7.092; 3712.038;92.88601
 592.27; 3351.866;  -12.381; 3723.934;90.04185
 592.85; 3410.316;    1.005; 3818.555;89.30626
 593.43; 3293.330;  -13.200; 3717.295;88.63516
 594.02; 3366.996;   -0.182; 3775.482;89.18108
 594.60; 3512.494;   -8.856; 3989.178;88.07703
 595.18; 3467.451;   -0.940; 3925.711;88.32951
 595.76; 3590.580;  -22.087; 4045.074;88.82528
 596.35; 3751.779;   -1.732; 4259.597;88.08313
 596.93; 3696.523;  -19.739; 4164.724;88.81096
 597.51; 3588.090;   -7.202; 4097.731;87.58467
 598.09; 3487.012;  -11.223; 3922.667;88.92561
 598.68; 3686.505;   -0.771; 4125.497;89.36106
 599.26; 3638.193;   -9.029; 4070.035;89.41319
 599.84; 3702.176;  -12.979; 4119.849;89.89375
 600.42; 3513.035;  -12.762; 3926.744;89.49846
 601.01; 3601.062;   -2.646; 4043.128;89.07339
 601.59; 3648.420;  -18.330; 4074.661;89.58608
 602.17; 3564.516;   -5.259; 3888.672;91.67534
 602.75; 3131.855;  -22.839; 3458.434;90.61897
 603.33; 3290.989;   -6.347; 3684.854;89.32965
 603.92; 3496.158;  -14.602; 3873.021;90.30608
 604.50; 3525.800;   -2.517; 3964.288;88.94607
 605.08; 3561.978;  -28.869; 3990.571;89.33700
 605.66; 3463.056;   -2.884; 3915.418;88.45515
 606.24; 3498.659;  -10.001; 3999.582;87.50686
 606.83; 3555.189;    6.889; 4065.371;87.42925
 607.41; 3441.521;   -1.239; 3933.862;87.48847
 607.99; 3321.410;   15.485; 3844.404;86.34095
 608.57; 3271.372;   -0.325; 3768.702;86.80481
 609.15; 3397.289;   13.561; 3869.952;87.74337
 609.73; 3359.380;   -9.841; 3839.198;87.53409
 610.32; 3342.156;    9.298; 3959.459;84.37271
 610.90; 3361.494;    3.744; 3956.978;84.93678
 611.48; 3383.991;   -0.011; 3889.632;87.00031
 612.06; 3343.815;   -4.868; 3860.412;86.63494
 612.64; 3377.337;    8.202; 3944.788;85.58520
 613.22; 3263.984;  -19.795; 3724.898;87.69154
 613.80; 3114.054;   -0.566; 3595.515;86.61151
 614.39; 3233.148;   -3.268; 3743.222;86.38526
 614.97; 3263.806;   -3.461; 3684.657;88.58902
 615.55; 3190.898;  -15.164; 3644.603;87.60291
 616.13; 3183.795;  -14.537; 3643.198;87.44024
 616.71; 3271.950;  -13.277; 3690.085;88.70931
 617.29; 3224.818;   -0.258; 3622.334;89.02675
 617.87; 2963.709;  -17.870; 3272.320;90.62027
 618.45; 2907.832;   -1.736; 3210.340;90.58219
 619.04; 2904.630;   -9.891; 3225.494;90.08266
 619.62; 3013.924;    0.716; 3398.908;88.67091
 620.20; 2935.422;  -18.403; 3247.541;90.44323
 620.78; 2811.099;    1.127; 3155.304;89.08732
 621.36; 2903.701;  -10.508; 3254.648;89.25174
 621.94; 2855.107;    6.694; 3134.641;91.06336
 622.52; 2780.528;  -14.246; 3054.256;91.07942
 623.10; 2839.798;    0.719; 3118.991;91.04656
 623.68; 2834.943;   -6.978; 3063.539;92.55513
 624.26; 2722.262;   -4.282; 2985.811;91.18595
 624.84; 2803.862;    2.072; 3081.687;90.97859
 625.42; 2727.336;   -6.225; 3096.969;88.08863
 626.01; 2909.779;   -6.641; 3253.336;89.46135
 626.59; 2893.920;   -3.130; 3217.008;89.96665
 627.17; 2884.270;  -14.689; 3182.505;90.67198
 627.75; 2993.470;    1.965; 3321.481;90.11870
 628.33; 3014.699;  -18.909; 3353.187;89.96210
 628.91; 2974.980;   -1.541; 3328.998;89.37056
 629.49; 3098.309;   -1.642; 3494.185;88.67576
 630.07; 3203.393;    3.017; 3567.659;89.78113
 630.65; 3385.482;  -15.359; 3731.401;90.76752
 631.23; 3443.861;    1.245; 3823.668;90.06372
 631.81; 3329.899;   -3.027; 3693.428;90.16548
 632.39; 3152.170;   -0.044; 3512.882;89.73187
 632.97; 3191.660;  -26.519; 3536.124;90.33122
 633.55; 3106.348;   -7.486; 3435.264;90.44612
 634.13; 3069.995;  -14.000; 3386.262;90.69874
 634.71; 2943.716;  -21.513; 3305.797;89.11793
 635.29; 2929.115;  -12.477; 3243.652;90.34013
 635.87; 2800.119;   -2.857; 3087.142;90.71123
 636.45; 2787.055;  -13.993; 3079.658;90.54183
 637.03; 2775.960;  -12.228; 3074.325;90.33340
 637.61; 2852.707;  -13.706; 3147.541;90.67351
 638.19; 2790.630;   -1.145; 3109.418;89.75144
 638.77; 2835.440;  -11.743; 3135.734;90.45922
 639.35; 2805.517;   -1.222; 3077.098;91.17764
 639.93; 2723.617;  -11.422; 2974.598;91.59481
 640.51; 2571.137;    9.787; 2851.029;90.14896
 641.09; 2642.839;   -4.834; 2945.132;89.75265
 641.67; 2709.341;   -9.755; 3039.236;89.18020
 642.25; 2769.843;    1.225; 3103.239;89.25228
 642.83; 2756.445;   -6.696; 3045.242;90.53726
 643.41; 2858.847;  -19.217; 3180.246;89.95462
 643.99; 2947.650;   -3.038; 3252.049;90.64850
 644.57; 2994.752;  -18.258; 3336.452;89.81430
 645.14; 2845.654;   -5.279; 3127.756;90.99589
 645.72; 2635.856;   -4.100; 2981.359;88.42713
 646.30; 2667.658;   -9.520; 2956.062;90.27495
 646.88; 2561.460;   -4.841; 2857.766;89.64910
 647.46; 2510.762;    0.638; 2821.969;88.96950
 648.04; 2508.664;   -3.882; 2837.672;88.42155
 648.62; 2627.166;    4.397; 2960.876;88.71261
 649.20; 2480.868;   -5.724; 2782.279;89.18901
 649.78; 2346.571;  -12.745; 2625.482;89.42806
 650.36; 2397.373;  -10.865; 2730.186;87.85819
 650.94; 2473.775;   -4.286; 2770.289;89.31316
 651.52; 2384.777;  -14.407; 2702.092;88.31895
 652.09; 2274.479;   -0.327; 2518.996;90.29434
 652.67; 2274.981;  -17.548; 2546.899;89.39662
 653.25; 2276.283;  -12.069; 2507.802;90.81226
 653.83; 2181.085;  -10.989; 2420.306;90.16078
 654.41; 2281.887;   -6.510; 2527.909;90.29278
 654.99; 2234.090;  -11.931; 2473.713;90.35972
 655.57; 2246.192;  -17.252; 2519.216;89.23604
 656.15; 2211.694;  -16.672; 2495.119;88.71620
 656.72; 2254.996;   -7.693; 2480.523;90.93621
 657.30; 2287.298;   -2.814; 2533.726;90.28488
 657.88; 2238.400;   -2.134; 2503.229;89.42951
 658.46; 2273.402;  -16.155; 2495.233;91.16702
 659.04; 2164.104;   -6.176; 2433.736;88.94912
 659.62; 2222.006;   -2.496; 2493.739;89.11429
 660.20; 2210.508;  -15.417; 2466.343;89.69142
 660.77; 2285.611;   -7.138; 2510.746;91.05855
 661.35; 2322.113;   -6.759; 2556.849;90.84350
 661.93; 2319.115;  -20.379; 2568.453;90.36871
 662.51; 2240.917;   -7.700; 2516.956;89.06627
 663.09; 2200.019;  -12.921; 2454.459;89.68783
 663.67; 2320.321;   -4.441; 2580.963;89.91873
 664.24; 2217.623;  -16.162; 2438.566;90.99929
 664.82; 2128.125;   -9.183; 2374.569;89.66151
 665.40; 2184.627;  -15.003; 2357.773;92.70284
 665.98; 2114.930;   -5.624; 2298.076;92.04990
 666.56; 2068.232;  -15.445; 2249.879;91.98138
 667.13; 2016.934;   -7.366; 2251.983;89.59660
 667.71; 2041.836;   -9.486; 2275.086;89.79020
 668.29; 1897.538;   -6.107; 2081.289;91.19710
 668.87; 1898.240;  -18.428; 2108.593;90.11045
 669.44; 1927.342;   -7.848; 2089.596;92.26421
 670.02; 1885.344;  -15.869; 2071.699;91.07310
 670.60; 1782.546;  -10.590; 1936.903;92.07409
 671.18; 1799.048;   -1.010; 1982.306;90.76004
 671.76; 1845.251;  -10.931; 1981.410;93.16588
 672.33; 1706.653;  -13.752; 1859.713;91.83010
 672.91; 1786.755;  -12.272; 1936.116;92.33411
 673.49; 1837.757;   -7.193; 2035.220;90.33189
 674.07; 1823.559;   -9.914; 2000.723;91.18867
 674.64; 1677.661;  -15.035; 1817.326;92.37786
 675.22; 1664.763;  -17.455; 1793.030;92.91536
 675.80; 1720.165;  -19.876; 1888.233;91.19193
 676.38; 1605.667;   -8.597; 1772.536;90.63131
 676.95; 1631.770;  -17.417; 1778.040;91.85332
 677.53; 1747.372;  -15.038; 1881.743;92.91582
 678.11; 1659.174;  -18.559; 1787.046;92.91802
 678.68; 1577.376;   -8.879; 1731.950;91.12068
 679.26; 1628.378;  -16.500; 1786.153;91.24762
 679.84; 1638.380;   -2.621; 1892.856;86.57455
 680.42; 1608.982;   -8.342; 1745.660;92.20767
 680.99; 1536.584;    3.238; 1705.463;90.07894
 681.57; 1605.986;  -12.583; 1709.266;94.00180
 682.15; 1539.388;   -6.704; 1730.370;89.00557
 682.72; 1571.491;  -16.524; 1717.473;91.58116
 683.30; 1613.593;  -12.345; 1787.176;90.35390
 683.88; 1569.595;  -18.966; 1721.580;91.26797
 684.45; 1494.797;  -14.286; 1696.183;88.22626
 685.03; 1556.199;  -10.407; 1732.686;89.87505
 685.61; 1543.201;  -14.728; 1707.090;90.48165
 686.18; 1439.403;  -17.549; 1587.893;90.75084
 686.76; 1483.805;   -2.069; 1598.096;92.85754
 687.34; 1487.407;  -11.690; 1668.300;89.23253
 687.91; 1491.110;  -12.811; 1654.703;90.18937
 688.49; 1465.512;  -23.331; 1588.206;92.38647
 689.07; 1419.914;   -3.752; 1565.710;90.71044
 689.64; 1371.916;  -20.973; 1478.713;92.87869
 690.22; 1370.718;  -13.593; 1540.617;89.06849
 690.80; 1388.420;  -26.414; 1541.420;90.24133
 691.37; 1418.322;   -7.135; 1579.823;89.82323
 691.95; 1547.524;  -14.756; 1691.727;91.54973
 692.53; 1535.526;    6.824; 1671.730;91.81915
 693.10; 1469.928;  -13.597; 1644.233;89.48597
 693.68; 1484.531;   -1.618; 1599.237;92.83470
 694.25; 1386.133;  -11.938; 1531.340;90.59099
 694.83; 1344.535;   -4.159; 1441.843;93.27052
 695.41; 1302.637;  -28.980; 1424.547;91.61283
 695.98; 1288.939;  -20.200; 1454.250;88.78830
 696.56; 1397.941;  -12.521; 1562.953;89.52619
 697.13; 1344.843;   -8.642; 1499.057;89.77160
 697.71; 1306.745;   -8.963; 1464.860;89.27180
 698.29; 1352.347;  -27.083; 1471.063;92.07581
 698.86; 1170.550;  -15.604; 1317.667;88.96569
 699.44; 1110.752;  -14.625; 1267.170;87.79692
 700.01; 1159.354;  -20.345; 1301.973;89.21443
 700.59; 1187.456;   -6.866; 1308.977;90.76479
 701.16; 1214.458;  -17.087; 1348.480;90.18560
 701.74; 1245.660;   -0.107; 1412.983;88.15905
 702.32; 1351.362;  -22.228; 1506.987;89.82324
 702.89; 1340.164;   -7.749; 1498.790;89.47084
 703.47; 1320.866;   -0.370; 1483.493;89.04029
 704.04; 1259.168;  -11.090; 1435.897;87.78646
 704.62; 1280.371;   -9.311; 1404.900;91.19441
 705.19; 1164.073;  -10.332; 1256.703;92.68917
 705.77; 1119.375;  -14.852; 1201.207;93.27072
 706.34; 1111.177;  -21.873; 1236.510;90.04013
 706.92; 1094.779;  -22.594; 1224.813;89.57562
 707.49; 1091.381;  -14.214; 1229.417;88.90059
 708.07; 1156.283;  -14.035; 1272.720;90.95112
 708.64; 1131.585;   -4.556; 1269.124;89.20150
 709.22; 1251.587;  -29.877; 1373.927;91.28514
 709.79; 1198.990;   -9.597; 1290.130;92.98771
 710.37; 1156.592;  -16.518; 1252.634;92.43259
 710.94; 1184.594;  -11.539; 1304.537;90.88630
 711.52; 1175.296;  -13.959; 1301.040;90.43768
 712.09; 1127.998;   -5.680; 1191.744;94.67643
 712.67; 1149.800;  -15.301; 1267.147;90.84977
 713.24; 1118.502;  -13.321; 1233.750;90.75850
 713.82; 1118.104;  -18.142; 1252.754;89.40516
 714.39; 1124.306;   -7.263; 1252.857;89.79854
 714.97; 1251.508;  -10.884; 1383.060;90.56261
 715.54; 1151.511;   -9.204; 1276.964;90.24598
 716.12; 1082.213;  -26.825; 1212.567;89.48240
 716.69; 1014.215;  -12.446; 1110.970;91.38738
 717.27;  998.017;  -16.966; 1092.974;91.44487
 717.84; 1000.419;  -14.987; 1106.077;90.57520
 718.42; 1089.821;  -14.608; 1219.580;89.48626
 718.99; 1086.223;  -14.428; 1222.884;88.95505
 719.57; 1014.125;  -20.749; 1121.787;90.57695
 720.14; 1007.827;  -10.870; 1110.090;90.87720
 720.71;  977.329;  -19.691; 1076.294;90.97029
 721.29;  987.232;  -10.911; 1119.797;88.27589
 721.86; 1089.434;  -13.832; 1228.400;88.81315
 722.44; 1083.336;  -10.553; 1206.104;89.90940
 723.01; 1080.238;  -21.973; 1197.807;90.36145
 723.59; 1005.840;  -19.094; 1128.310;89.32631
 724.16; 1007.142;  -24.815; 1095.214;92.13666
 724.73;  965.444;  -10.435; 1106.817;87.34638
 725.31; 1048.446;  -23.656; 1146.321;91.63452
 725.88; 1044.648;   -3.077; 1178.024;88.70753
 726.46;  991.551;   -7.598; 1089.327;91.08629
 727.03;  927.153;   -1.518; 1008.631;91.93407
 727.60;  965.855;  -17.539; 1040.034;92.98591
 728.18;  968.857;   -5.860; 1067.937;90.77290
 728.75;  965.759;  -14.780; 1074.441;90.02208
 729.32;  988.161;  -14.601; 1077.444;91.82425
 729.90;  988.363;  -20.622; 1065.547;92.89392
 730.47;  937.665;  -14.242; 1062.851;88.37748
 731.05;  964.867;  -18.663; 1048.754;92.14116
 731.62;  996.069;  -10.584; 1099.257;90.70247
 732.19;  969.572;  -19.905; 1066.661;91.06459
 732.77;  958.274;  -10.025; 1039.264;92.28142
 733.34;  968.176;  -19.246; 1059.367;91.54549
 733.91;  940.178;  -10.567; 1041.571;90.36316
 734.49;  919.080;  -20.587; 1023.474;90.00116
 735.06;  941.682;   -2.508; 1022.377;92.12641
 735.63;  868.884;  -28.929;  958.381;90.93532
 736.21;  902.086;   -5.149;  969.884;93.04663
 736.78;  895.288;  -25.570;  990.887;90.59489
 737.35;  875.891;  -14.991;  951.391;92.18733
 737.93;  855.693;  -20.312;  928.194;92.35625
 738.50;  913.995;  -17.032; 1005.597;91.04244
 739.07;  904.997;  -18.153;  999.301;90.73138
 739.64;  937.399;  -21.874; 1012.504;92.73910
 740.22;  954.301;  -18.694; 1013.207;94.29147
 740.79;  898.803;  -12.315;  982.011;91.63176
 741.36;  868.905;  -19.736;  927.214;93.84246
 741.94;  844.407;  -10.156;  928.817;91.01039
 742.51;  840.209;  -19.277;  914.421;92.05189
 743.08;  867.612;   -1.998;  911.824;95.16180
 743.65;  846.614;  -19.018;  912.128;92.96417
 744.23;  895.616;   -1.739;  989.531;90.52579
 744.80;  839.018;  -29.260;  889.434;94.51218
 745.37;  766.720;  -17.581;  835.938;91.89033
 745.95;  753.622;   -8.501;  838.341;89.99592
 746.52;  775.574;  -11.072;  858.494;90.46421
 747.09;  797.526;  -13.643;  878.648;90.90865
 747.66;  787.428;  -11.963;  876.451;89.97962
 748.23;  813.431;  -17.484;  878.254;92.76310
 748.81;  794.933;   -6.905;  857.258;92.78782
 749.38;  788.735;  -34.225;  847.761;93.30758
 749.95;  741.737;  -21.046;  791.664;93.85668
 750.52;  668.739;  -22.967;  764.568;87.83181
 751.10;  717.841;   -0.288;  810.571;88.56398
 751.67;  741.643;  -15.808;  835.974;88.92544
 752.24;  740.045;  -11.229;  809.178;91.57340
 752.81;  699.647;  -15.750;  771.681;90.85207
 753.38;  732.949;  -10.670;  844.584;86.94718
 753.96;  722.052;  -18.191;  817.188;88.61162
 754.53;  697.854;  -12.812;  768.291;90.98232
 755.10;  709.156;  -33.132;  778.294;91.47938
 755.67;  692.458;  -11.253;  773.698;89.65033
 756.24;  711.760;  -24.474;  759.401;93.92236
 756.82;  722.762;  -17.695;  804.604;90.04714
 757.39;  737.164;  -25.315;  844.708;87.63900
 757.96;  672.066;  -11.836;  771.311;87.32744
 758.53;  642.968;  -17.457;  687.914;93.62803
 759.10;  648.671;  -25.377;  718.618;90.59843
 759.67;  650.573;  -23.798;  691.421;94.28867
 760.25;  649.975;  -11.619;  726.024;89.69017
 760.82;  680.477;  -13.939;  707.228;96.29060
 761.39;  635.179;  -20.060;  708.731;89.90764
 761.96;  620.481;  -25.281;  688.435;90.47891
 762.53;  619.483;  -10.402;  698.938;88.79878
 763.10;  654.985;  -37.122;  725.641;90.73685
 763.67;  678.687;  -14.143;  743.145;91.48842
 764.25;  700.089;  -17.064;  773.248;90.74309
 764.82;  677.892;  -27.784;  728.151;93.35133
 765.39;  638.994;  -22.205;  685.855;93.38179
 765.96;  642.296;   -9.626;  744.158;86.48656
 766.53;  642.998;  -12.746;  710.361;90.68419
 767.10;  606.600;  -23.067;  656.565;92.64828
 767.67;  611.002;  -31.688;  658.268;93.14944
 768.24;  558.404;  -16.709;  634.871;88.26436
 768.81;  568.106;  -19.329;  616.075;92.45074
 769.39;  593.208;  -13.050;  672.678;88.41092
 769.96;  583.511;  -19.171;  641.581;91.21141
 770.53;  566.913;  -13.291;  627.085;90.60364
 771.10;  617.815;  -27.312;  697.888;88.95846
 771.67;  661.917;   -4.633;  690.491;95.88929
 772.24;  599.519;  -16.153;  632.495;94.91623
 772.81;  547.021;  -15.374;  623.298;88.05694
 773.38;  529.623;  -13.795;  562.601;94.27855
 773.95;  506.625;   -4.916;  575.305;88.16321
 774.52;  517.127;  -29.736;  558.008;93.04447
 775.09;  517.429;  -18.357;  564.111;91.98550
 775.66;  510.632;  -20.778;  569.315;90.05525
 776.23;  489.434;  -15.598;  551.718;89.02122
 776.80;  502.036;  -14.019;  550.121;91.47630
 777.37;  532.138;  -24.840;  610.325;87.69029
 777.94;  513.940;  -22.060;  590.928;87.44053
 778.51;  473.642;   -3.981;  533.332;88.89113
 779.08;  501.744;  -27.602;  568.035;88.87063
 779.65;  504.646;   -7.523;  597.338;84.67550
 780.22;  509.748;  -21.343;  593.342;86.40066
 780.79;  522.851;   -9.064;  571.745;91.58168
 781.36;  499.553;  -20.585;  537.348;93.22578
 781.93;  420.655;  -18.105;  497.252;85.13713
 782.50;  466.557;  -31.626;  519.355;90.41744
 783.07;  481.459;  -16.747;  548.258;88.17722
 783.64;  475.461;  -25.067;  542.462;88.19434
 784.21;  481.463;  -20.088;  570.965;84.85724
 784.78;  486.865;  -34.109;  578.868;84.99079
 785.35;  469.267;  -21.730;  524.472;89.89306
 785.92;  458.369;  -29.850;  503.375;91.55976
 786.49;  447.172;  -11.071;  513.078;87.42596
 787.06;  447.774;  -32.292;  499.982;90.19151
 787.63;  431.876;   -8.312;  509.185;85.06095
 788.20;  421.678;  -19.033;  472.888;89.58971
 788.77;  381.180;  -15.654;  456.192;84.10249
 789.34;  414.282;  -13.074;  489.495;85.03432
 789.91;  414.384;  -11.295;  490.898;84.76401
 790.48;  455.186;  -24.716;  517.902;88.44206
 791.05;  408.488;  -12.237;  505.505;81.26157
 791.62;  426.291;  -14.257;  501.408;85.43283
 792.19;  413.393;  -19.978;  506.712;82.28195
 792.76;  449.795;  -35.699;  512.915;88.49457
 793.33;  437.797;  -11.219;  541.618;81.22024
 793.89;  431.999;  -31.240;  539.722;81.13309
 794.46;  406.001;  -24.961;  499.225;82.21545
 795.03;  409.803;  -20.181;  478.328;86.25397
 795.60;  352.805;  -22.402;  432.632;82.45701
 796.17;  332.507;  -22.423;  413.135;81.48862
 796.74;  337.409;  -19.544;  415.539;82.04269
 797.31;  355.912;  -15.264;  406.942;87.91342
 797.88;  318.114;   -9.185;  405.745;78.88042
 798.45;  324.216;  -18.106;  426.149;77.05531
 799.01;  300.418;  -18.926;  437.952;69.89701
 799.58;  264.020;  -28.347;  434.455;63.17321
 800.15;  198.222;  -20.468;  450.159;46.46783
 800.72;  129.824;  -17.988;  459.762;30.93931
 801.29;   90.926;    0.391;  476.765;19.00510
 801.86;   55.728;  -29.430;  463.069;17.29107
 802.43;   35.831;  -18.951;  464.972;11.32021
 802.99;   16.133;  -24.571;  445.675; 8.65585
 803.56;    8.535;  -13.692;  431.379; 4.99396
 804.13;   11.837;  -22.913;  416.482; 7.90849
 804.70;   -7.861;  -13.433;  430.385; 1.25553
 805.27;  -16.159;  -24.054;  416.189; 1.79334
 805.84;  -18.157;   -9.975;  401.192;-1.98998
 806.40;  -21.055;  -31.495;  423.795; 2.29319
 806.97;  -17.053;  -27.116;  439.099; 2.15855
 807.54;  -16.651;  -32.637;  438.302; 3.39456
 808.11;  -27.248;   -6.657;  429.105;-4.72526
 808.68;  -19.546;  -29.578;  421.909; 2.22197
 809.24;  -18.844;  -26.299;  394.812; 1.77025
 809.81;  -17.942;  -14.020;  380.915;-0.99320
 810.38;  -22.240;  -13.940;  385.819;-2.07617
 810.95;  -16.438;  -21.761;  371.622; 1.35316
 811.52;  -16.736;  -13.882;  376.025;-0.73199
 812.08;  -10.134;  -35.202;  381.929; 6.00979
 812.65;  -25.432;  -12.423;  369.632;-3.40487
 813.22;  -20.029;  -24.344;  366.235; 1.10460
 813.79;  -26.127;  -22.364;  393.539;-0.90475
 814.35;  -23.525;  -22.485;  408.142;-0.24152
 814.92;  -19.223;  -22.506;  404.646; 0.76852
 815.49;   -7.221;  -20.727;  417.349; 3.08293
 816.06;  -29.219;  -13.247;  358.552;-4.29577
 816.62;  -18.217;  -26.168;  341.556; 2.16226
 817.19;  -20.815;  -17.689;  336.759;-0.88195
 817.76;  -14.313;  -10.209;  369.062;-1.08187
 818.33;  -23.611;   -7.130;  353.966;-4.56401
 818.89;  -20.008;  -29.951;  361.469; 2.54008
 819.46;  -15.706;  -17.771;  351.572; 0.55915
 820.03;  -11.104;  -28.592;  348.776; 4.63420
 820.60;  -18.602;  -18.313;  359.579;-0.07653
 821.16;  -16.300;  -26.434;  381.082; 2.48667
 821.73;  -17.598;  -26.454;  360.986; 2.28588
 822.30;  -22.496;  -27.775;  368.289; 1.33292
 822.86;  -22.094;  -22.996;  354.192; 0.23914
 823.43;  -11.592;  -33.916;  337.296; 6.01403
 824.00;  -19.989;  -21.737;  364.399; 0.45259
 824.56;   -8.287;  -26.758;  370.402; 4.65062
 825.13;  -17.385;   -8.578;  324.106;-2.64719
 825.70;  -17.483;  -31.399;  317.109; 3.99303
 826.26;  -15.181;   -9.120;  305.912;-1.92398
 826.83;  -17.079;  -29.041;  334.816; 3.28746
 827.40;  -20.777;  -25.161;  358.919; 1.14154
 827.96;  -25.075;  -22.782;  361.322;-0.59691
 828.53;  -26.673;  -15.203;  342.726;-3.20454
 829.10;  -21.971;  -27.723;  356.829; 1.49599
 829.66;  -15.168;  -26.044;  342.332; 2.95232
 830.23;  -26.466;  -25.865;  351.036;-0.15960
 830.80;  -20.964;  -14.685;  359.339;-1.67870
 831.36;  -12.762;  -26.206;  357.443; 3.50427
 831.93;  -19.960;  -18.727;  331.046;-0.35255
 832.49;  -10.858;  -28.048;  316.949; 4.98256
 833.06;  -27.156;  -18.168;  329.053;-2.58842
 833.63;  -23.754;  -16.889;  345.256;-1.89557
 834.19;  -11.652;  -23.510;  330.959; 3.34531
 834.76;  -14.649;  -27.930;  305.863; 3.97878
 835.33;  -15.347;  -18.451;  338.666; 0.86910
 835.89;  -18.545;  -29.572;  343.269; 2.95743
 836.46;  -27.443;   -2.092;  322.273;-7.81548
 837.02;  -24.541;  -25.313;  312.776; 0.22837
 837.59;  -18.339;  -15.034;  325.779;-0.96976
 838.15;   -7.237;  -23.055;  314.683; 4.68344
 838.72;  -24.035;  -17.175;  320.886;-2.02906
 839.29;  -15.433;  -24.096;  326.689; 2.46970
 839.85;  -19.431;  -23.017;  332.593; 1.00845
 840.42;  -13.228;  -25.937;  338.396; 3.48827
 840.98;  -20.126;  -17.258;  335.099;-0.81402
 841.55;  -16.524;  -26.479;  307.503; 2.98057
 842.11;  -32.622;  -18.799;  281.406;-4.60440
 842.68;  -19.320;  -36.220;  298.709; 5.04588
 843.24;  -22.718;  -12.341;  287.113;-3.46533
 843.81;  -18.516;  -24.962;  281.116; 2.10592
 844.38;  -19.614;  -26.882;  274.419; 2.41239
 844.94;  -10.812;  -19.803;  266.423; 3.14136
 845.51;  -13.309;  -12.224;  279.026;-0.37282
 846.07;  -11.907;  -33.644;  288.029; 6.75746
 846.64;  -22.305;  -22.165;  266.633;-0.04855
 847.20;  -10.803;  -28.686;  260.436; 6.18514
 847.77;  -29.101;  -16.306;  284.839;-4.24864
 848.33;  -15.999;  -27.027;  273.543; 3.66909
 848.90;  -25.897;  -27.748;  282.646; 0.59634
 849.46;  -14.295;  -31.669;  273.350; 5.69599
 850.03;  -21.293;  -11.689;  251.153;-3.65367
 850.59;  -20.891;  -38.810;  256.256; 6.07302
 851.16;  -15.988;  -22.731;  271.760; 2.28945
 851.72;  -25.786;  -15.551;  263.363;-3.66958
 852.29;  -25.484;  -10.072;  258.566;-5.73715
 852.85;  -21.882;  -22.893;  273.170; 0.34136
 853.41;  -35.380;  -26.913;  282.473;-2.73657
 853.98;  -20.578;   -9.434;  274.376;-3.92648
 854.54;  -26.276;  -12.855;  274.080;-4.67736
 855.11;  -15.074;  -24.776;  274.683; 3.23980
 855.67;  -28.472;  -22.896;  295.686;-1.75005
 856.24;  -14.969;  -30.417;  278.390; 5.00231
 856.80;  -16.967;  -18.938;  258.993; 0.70890
 857.37;   -9.365;  -29.958;  273.596; 6.78397
 857.93;  -28.663;  -16.579;  264.600;-4.29767
 858.49;  -21.761;  -36.100;  249.103; 5.02754
 859.06;  -23.959;  -17.520;  258.506;-2.33257
 859.62;   -7.357;  -24.241;  263.910; 5.85953
 860.19;  -20.055;  -24.662;  251.513; 1.66818
 860.75;  -14.953;  -24.083;  277.616; 3.02616
 861.31;  -16.951;  -12.103;  265.920;-1.74349
 861.88;  -22.648;  -26.624;  271.823; 1.33206
 862.44;  -29.746;  -21.745;  231.526;-3.15934
 863.01;  -21.244;  -20.165;  233.930;-0.42460
 863.57;  -23.142;  -23.586;  217.333; 0.18426
 864.13;  -10.940;  -29.207;  230.736; 7.02720
 864.70;  -28.038;  -29.627;  209.040; 0.66600
 865.26;  -23.136;  -26.148;  220.143; 1.22308
 865.82;  -31.434;  -13.569;  236.246;-7.15123
 866.39;  -15.532;  -28.390;  234.350; 4.89380
 866.95;  -25.829;  -17.610;  241.453;-3.17268
 867.52;  -11.727;  -42.331;  212.357;12.01612
 868.08;  -24.125;  -16.752;  201.260;-3.38223
 868.64;  -20.523;  -32.072;  199.263; 4.99238
 869.21;  -24.321;  -22.293;  199.667;-0.91370
 869.77;  -27.519;  -27.414;  196.670;-0.04696
 870.33;  -29.517;  -29.534;  199.573; 0.00767
 870.90;  -30.815;  -42.155;  202.277; 4.63948
 871.46;  -29.213;  -21.576;  228.680;-3.05161
 872.02;  -22.311;  -30.497;  225.683; 3.19540
 872.58;  -20.308;  -23.617;  209.187; 1.42127
 873.15;  -12.206;  -45.838;  203.690;13.47809
 873.71;  -29.204;  -26.959;  203.593;-0.97401
 874.27;  -20.602;  -41.679;  218.097; 8.11361
 874.84;  -23.800;  -14.000;  224.500;-4.10901
 875.40;  -18.300;  -31.800;  220.400; 5.35289
 875.96;  -28.900;  -25.700;  209.500;-1.36054
 876.53;  -20.200;  -39.400;  188.800; 8.41367
 877.09;  -18.200;   -8.600;  179.500;-5.10367
 877.65;  -17.200;  -25.700;  191.400; 3.91525
 878.21;  -29.900;  -15.700;  211.300;-6.25551
 878.78;  -19.100;  -32.900;  202.300; 5.86735
 879.34;  -24.100;  -13.000;  220.300;-4.75782
 879.90;  -23.300;  -26.300;  207.100; 1.28535
 880.46;  -32.800;  -18.100;  186.500;-7.18475
 881.03;  -12.700;  -16.600;  187.200; 1.91364
 881.59;  -28.000;  -24.900;  184.100;-1.48325
 882.15;  -19.200;  -35.400;  191.200; 7.14916
 882.71;  -22.800;  -20.600;  193.700;-1.02660
 883.28;  -14.300;  -21.400;  176.600; 3.58586
 883.84;  -34.700;  -15.500;  173.600;-10.15336
 884.40;  -28.800;  -22.900;  167.500;-3.09874
 884.96;  -18.700;  -24.400;  174.100; 2.87154
 885.52;  -26.600;  -24.800;  160.200;-0.97297
 886.09;  -19.100;  -21.600;  156.300; 1.40528
 886.65;  -17.900;  -22.800;  188.500; 2.31898
 887.21;  -22.800;  -13.700;  173.200;-4.86891
 887.77;   -7.900;  -31.800;  157.800;12.60548
 888.33;  -15.500;  -16.200;  154.400; 0.41032
 888.90;  -13.400;  -29.000;  134.900; 9.51800
 889.46;  -28.900;  -11.200;  159.700;-10.35693
 890.02;  -28.500;  -25.400;  182.100;-1.49398
 890.58;  -19.300;  -13.700;  167.900;-3.08370
 891.14;   -7.900;  -30.900;  163.400;11.83736
 891.70;  -26.900;  -22.700;  153.500;-2.38365
 892.27;  -15.400;  -21.600;  154.600; 3.51873
 892.83;  -15.900;  -23.200;  155.600; 4.08277
 893.39;  -18.600;  -23.000;  146.700; 2.59281
 893.95;  -24.100;  -22.600;  161.000;-0.81699
 894.51;  -10.600;  -29.700;  161.300;10.00000
 895.07;  -17.500;  -16.800;  162.100;-0.39128
 895.63;  -16.500;  -35.900;  153.900;10.22129
 896.20;  -21.900;  -30.300;  157.400; 4.47523
 896.76;  -21.200;  -28.300;  154.400; 3.88615
 897.32;  -15.800;  -19.200;  148.300; 2.02985
 897.88;  -26.100;  -21.700;  154.600;-2.49575
 898.44;  -15.500;  -25.100;  158.000; 5.24304
 899.00;  -24.000;  -40.200;  143.000; 8.84280
 899.56;  -29.000;  -13.500;  151.400;-9.39964
 900.12;  -17.600;  -30.400;  157.700; 6.80489
 900.68;  -32.000;  -33.000;  156.100; 0.52882
 901.24;  -30.400;  -32.300;  143.100; 1.08324
 901.81;  -25.600;  -26.200;  157.900; 0.32591
 902.37;  -12.000;  -39.000;  161.700;13.45291
 902.93;  -32.500;  -28.300;  144.400;-2.43196
 903.49;  -21.800;  -28.900;  138.700; 4.23628
 904.05;  -30.200;  -21.900;  137.200;-5.21685
 904.61;  -25.500;  -27.300;  145.900; 1.03926
 905.17;  -27.600;  -20.900;  136.000;-4.27024
 905.73;  -20.700;  -28.100;  150.800; 4.13639
 906.29;  -29.300;  -23.800;  125.000;-3.69624
 906.85;  -17.300;  -24.500;  125.500; 4.80000
 907.41;  -27.700;  -23.600;  148.200;-2.38650
 907.97;  -18.200;  -35.700;  146.700; 9.59430
 908.53;  -27.300;  -20.200;  147.900;-4.22368
 909.09;  -28.100;  -18.100;  133.300;-6.60502
 909.65;  -32.300;  -22.500;  130.800;-6.39269
 910.21;  -11.400;  -37.600;  119.600;16.66667
 910.77;  -37.100;  -25.200;  127.400;-7.79816
 911.33;  -21.600;  -32.000;  132.900; 6.30685
 911.89;  -21.700;  -22.800;  119.600; 0.77247
 912.45;  -16.100;  -33.300;  110.500;11.96106
 913.01;  -19.600;  -21.600;  108.700; 1.53492
 913.57;  -20.200;  -29.200;  118.900; 6.07698
 914.13;  -28.400;  -19.600;   97.200;-7.53425
 914.69;   -4.600;  -33.000;  120.800;18.46554
 915.25;  -30.500;  -24.600;  118.900;-4.11150
 915.81;  -30.600;  -37.100;  122.800; 4.06504
 916.37;  -31.600;  -23.700;  130.500;-5.12322
 916.93;  -14.200;  -35.800;  104.300;15.41756
 917.49;  -26.000;  -27.200;  121.300; 0.80808
 918.05;  -26.500;  -35.400;  105.000; 6.33903
 918.61;  -31.200;  -34.100;  106.900; 2.05674
 919.17;  -22.900;  -46.800;  113.500;14.90954
 919.73;  -18.800;  -28.300;   98.800; 7.47443
 920.29;  -18.300;  -30.500;  112.900; 8.50767
 920.85;  -20.600;  -23.700;  118.200; 2.18464
 921.40;  -23.000;  -27.100;  106.100; 3.07808
 921.96;  -21.900;  -29.600;  111.300; 5.46487
 922.52;  -16.700;  -37.200;  119.700;13.06565
 923.08;  -23.200;  -17.900;   97.300;-4.60069
 923.64;  -22.100;  -33.100;  105.100; 7.95948
 924.20;  -20.900;  -27.200;   99.800; 4.96063
 924.76;  -17.800;  -28.500;   97.900; 8.46519
 925.32;  -35.600;  -13.000;   85.400;-22.96748
 925.88;  -18.100;  -28.200;   89.700; 8.56658
 926.44;  -26.900;  -21.100;   98.100;-4.86577
 926.99;  -13.200;  -26.200;  104.500; 9.94644
 927.55;  -23.500;  -10.000;   90.200;-13.47305
 928.11;  -34.600;  -21.100;   91.600;-11.97870
 928.67;  -40.600;  -16.900;   75.900;-25.53879
 929.23;  -20.300;  -38.400;   85.200;14.64401
 929.79;  -31.200;  -23.700;   87.300;-6.75676
 930.35;  -15.500;  -26.900;   80.900;10.57514
 930.90;  -26.600;  -21.700;   90.400;-4.37110
 931.46;  -23.100;  -32.400;   92.200; 7.46389
 932.02;  -34.700;  -24.300;   84.000;-9.60296
 932.58;  -18.900;  -36.600;   81.800;14.94932
 933.14;  -18.500;  -29.700;   73.700;10.83172
 933.69;  -25.600;  -31.000;   93.700; 4.33039
 934.25;  -28.200;  -25.900;   89.600;-1.99134
 934.81;  -25.300;  -29.300;   72.700; 3.92157
 935.37;  -38.200;  -29.000;   61.800;-10.13216
 935.93;  -17.000;  -38.900;   88.000;17.25768
 936.49;  -22.800;  -19.200;   88.300;-3.34884
 937.04;  -17.400;  -29.800;   93.600;10.04862
 937.60;  -20.100;  -22.300;   97.500; 1.83639
 938.16;  -25.000;  -33.600;   85.900; 7.19665
 938.72;  -17.900;  -23.600;   87.800; 5.11670
 939.27;  -20.600;  -28.200;   69.500; 7.77892
 939.83;  -27.800;  -21.000;   84.100;-6.47003
 940.39;  -23.700;  -27.600;   87.500; 3.38836
 940.95;  -12.600;  -11.100;   71.200;-1.82260
 941.50;  -11.400;  -25.200;   67.200;14.93507
 942.06;  -23.600;  -29.600;   84.100; 5.27705
 942.62;  -22.100;  -32.200;   72.600; 9.63741
 943.18;  -26.100;  -12.300;   82.200;-14.60317
 943.73;   -4.700;  -28.700;   86.300;20.86957
 944.29;  -26.600;  -17.600;   77.500;-9.46372
 944.85;  -23.700;  -45.900;   69.200;19.28758
 945.41;  -21.600;  -29.300;   81.500; 6.94946
 945.96;  -21.700;  -35.300;   81.500;11.64384
 946.52;  -15.900;  -22.500;   67.800; 7.30897
 947.08;  -27.600;  -43.000;   65.200;14.23290
 947.63;  -27.200;  -21.600;   62.100;-6.69056
 948.19;  -24.800;  -32.600;   66.600; 7.86290
 948.75;  -32.500;  -21.300;   68.000;-12.54199
 949.31;  -26.400;  -41.400;   75.400;12.84247
 949.86;  -24.900;  -18.400;   60.900;-8.19672
 950.42;  -24.600;  -33.800;   59.800; 9.82906
 950.98;  -26.900;  -27.000;   59.800; 0.11521
 951.53;  -26.900;  -35.700;   51.600;10.08018
 952.09;  -22.600;  -26.400;   55.800; 4.62287
 952.65;  -22.000;  -35.000;   47.500;15.75758
 953.20;  -25.600;   -5.500;   52.300;-34.77509
 953.76;  -10.400;  -25.400;   48.900;20.18842
 954.32;  -35.900;  -15.400;   61.000;-26.83246
 954.87;  -11.700;  -29.500;   51.400;22.00247
 955.43;  -29.500;  -30.100;   66.000; 0.62435
 955.98;  -10.500;  -28.100;   55.600;21.02748
 956.54;  -25.700;  -22.000;   46.300;-5.41728
 957.10;  -14.600;  -24.800;   52.200;13.24675
 957.65;  -23.300;  -26.000;   44.200; 3.84615
 958.21;  -17.100;  -40.100;   38.600;29.22490
 958.77;  -34.000;  -21.200;   58.200;-16.12091
 959.32;  -12.800;  -25.100;   60.700;14.33566
 959.88;  -22.900;  -18.300;   35.800;-8.50277
 960.43;  -28.900;  -24.300;   48.200;-6.34483
 960.99;  -28.500;  -36.700;   46.600; 9.84394
 961.54;  -21.200;  -24.600;   45.300; 4.86409
 962.10;  -30.900;  -15.000;   53.700;-23.14410
 962.66;  -15.900;  -19.500;   54.200; 4.88467
 963.21;  -17.300;  -27.000;   37.600;15.01548
 963.77;  -13.000;  -18.900;   39.500;10.10274
 964.32;  -24.400;  -12.800;   38.600;-22.56809
 964.88;  -13.700;  -41.800;   48.100;31.25695
 965.43;  -38.100;  -19.400;   45.700;-28.72504
 965.99;  -17.000;  -38.600;   50.300;24.29696
 966.55;  -30.300;  -20.400;   50.700;-13.92405
 967.10;  -19.300;  -36.600;   37.900;23.22147
 967.66;  -35.500;  -36.300;   40.500; 1.04167
 968.21;  -29.600;  -39.900;   46.800;11.88005
 968.77;  -29.400;  -28.300;   44.300;-1.51515
 969.32;  -19.100;  -30.300;   35.200;17.09924
 969.88;  -27.200;  -16.500;   24.400;-26.16137
 970.43;   -8.000;  -30.500;   39.500;32.14286
 970.99;  -34.600;  -17.400;   35.600;-32.45283
 971.54;  -14.500;  -24.500;   36.300;16.44737
 972.10;  -23.200;  -38.600;   43.000;18.87255
 972.65;  -15.300;  -38.700;   35.000;31.75034
 973.21;  -34.300;  -19.000;   37.900;-26.88928
 973.76;  -18.100;  -31.300;   39.500;18.64407
 974.32;  -26.000;  -26.300;   37.300; 0.47170
 974.87;  -21.800;  -29.000;   48.600; 9.27835
 975.43;  -29.100;  -23.200;   36.300;-9.91596
 975.98;  -20.300;  -41.700;   37.200;27.12294
 976.53;  -15.100;  -28.700;   34.200;21.62162
 977.09;  -19.400;  -39.800;   36.100;26.87747
 977.64;  -30.900;  -16.900;   42.200;-23.68866
 978.20;  -21.000;  -30.800;   28.300;16.58206
 978.75;  -15.600;  -13.800;   30.600;-4.05405
 979.31;  -36.400;  -32.400;   27.800;-6.64452
 979.86;  -27.900;  -30.700;   37.600; 4.09956
 980.42;  -12.700;  -38.300;   29.700;37.64706
 980.97;  -29.500;  -14.500;   31.600;-32.53796
 981.52;  -18.600;  -36.400;   25.900;28.57143
 982.08;  -37.400;  -11.600;   28.200;-64.82412
 982.63;  -14.400;  -37.600;   22.000;38.92617
 983.19;  -33.700;  -25.100;   19.000;-19.50113
 983.74;  -35.500;  -34.800;   18.500;-1.31332
 984.29;  -33.400;  -28.900;   31.300;-7.47508
 984.85;  -25.100;  -26.700;   31.600; 2.74443
 985.40;  -27.200;  -37.900;   25.200;16.95721
 985.96;   -9.900;  -27.500;   26.100;32.83582
 986.51;  -32.900;  -22.000;   36.900;-18.50594
 987.06;  -15.900;  -35.000;   22.700;33.10225
 987.62;  -21.400;  -28.100;   34.000;10.78905
 988.17;  -30.100;  -31.800;   18.900; 3.35306
 988.72;  -27.100;  -18.700;   42.000;-13.83855
 989.28;  -16.100;  -35.400;   24.000;32.49158
 989.83;  -25.000;  -12.200;   25.200;-34.22460
 990.38;  -23.900;  -28.100;   15.900; 9.54546
 990.94;  -29.000;  -19.200;   24.300;-22.52873
 991.49;  -20.700;  -21.100;   15.200; 1.10193
 992.04;  -37.700;  -30.500;   27.100;-12.50000
 992.60;  -30.300;  -23.100;   23.300;-15.51724
 993.15;  -23.900;  -18.300;   23.200;-13.49398
 993.70;  -18.300;  -32.100;   16.300;28.51239
 994.26;  -31.900;  -27.100;   15.300;-11.32075
 994.81;  -23.900;  -37.900;   28.800;20.98951
 995.36;  -24.300;  -38.500;   19.500;24.48276
 995.91;  -26.700;  -35.600;    2.500;23.35958
 996.47;  -26.000;  -30.500;    6.700;12.09677
 997.02;  -17.600;  -28.400;   16.000;24.32432
 997.57;  -28.900;  -13.100;   12.100;-62.69841
 998.13;   -9.700;  -34.200;   18.600;46.40152
 998.68;  -33.400;  -26.700;   10.300;-18.10811
 999.23;  -31.100;  -37.300;   12.300;12.50000
 999.78;  -25.500;  -25.000;   20.300;-1.10375
1000.34;  -12.000;  -26.200;    0.400;53.38346
1000.89;  -16.000;  -26.100;    7.300;30.23952
1001.44;  -15.100;  -25.100;    9.600;28.81844
1001.99;  -25.700;  -16.200;    2.300;-51.35135
1002.55;  -23.200;  -29.800;    9.100;16.96658
1003.10;  -23.100;  -24.400;   16.900; 3.14770
1003.65;  -25.900;  -30.900;   14.800;10.94092
1004.20;  -38.800;  -28.200;   25.200;-19.85019
1004.75;  -14.900;  -27.700;   -4.200;54.46809
1005.31;  -30.200;  -23.200;    7.800;-22.58064
1005.86;  -24.600;  -43.600;    9.400;35.84905
1006.41;  -32.200;  -21.400;   11.800;-32.53012
1006.96;  -28.200;  -29.600;    0.000; 4.72973
1007.51;  -14.400;  -35.000;    5.000;51.50000
1008.07;  -29.800;  -33.700;   18.400; 7.48561
1008.62;  -14.700;  -28.000;   14.300;31.44208
1009.17;  -15.500;  -22.100;    5.500;23.91304
1009.72;  -26.000;  -30.100;   14.600; 9.17226
1010.27;  -21.900;  -26.500;    7.700;13.45029
1010.82;  -30.200;  -38.900;    9.100;18.12500
1011.38;  -29.200;  -29.200;    4.200; 0.00000
1011.93;  -25.800;  -13.400;   21.500;-35.53009
1012.48;  -32.600;  -26.100;    9.100;-18.46591
1013.03;  -30.500;  -23.800;    5.600;-22.78912
1013.58;  -23.000;  -24.500;   15.700; 3.73134
1014.13;  -21.900;  -27.400;   12.300;13.85390
1014.68;  -29.400;  -28.700;   14.400;-1.62413
1015.24;  -28.800;  -24.900;    2.700;-14.13044
1015.79;  -26.600;  -34.100;   10.700;16.74107
1016.34;  -30.400;  -20.800;   15.900;-26.15804
1016.89;   -8.600;  -30.700;  -10.700;110.50000
1017.44;  -24.900;  -26.300;   14.200; 3.45679
1017.99;  -15.400;  -34.800;    4.200;49.74359
1018.54;  -24.500;  -29.300;    1.200;15.73770
1019.09;  -24.600;  -34.400;   -6.000;34.50705
1019.64;  -20.600;  -28.600;    2.800;25.47771
1020.19;  -30.800;  -35.300;   -9.400;17.37451
1020.75;  -27.900;  -20.800;    8.700;-24.06780
1021.30;  -25.300;  -23.300;    5.100;-7.04226
1021.85;  -25.800;  -20.000;    8.400;-20.42254
1022.40;  -15.000;  -31.100;   -1.000;53.48837
1022.95;  -18.900;  -25.600;    4.600;22.18543
1023.50;  -31.400;  -37.500;    2.000;15.44304
1024.05;  -26.100;  -22.900;   -0.400;-14.22222
1024.60;  -29.800;  -31.400;    2.800; 4.67836
1025.15;  -17.700;  -24.000;   -2.200;28.89908
1025.70;  -31.600;  -24.700;   -4.200;-33.65853
1026.25;  -29.300;  -14.300;    3.400;-84.74576
1026.80;  -18.300;  -32.300;   -2.800;47.45763
1027.35;  -25.800;  -20.400;   -5.200;-35.52632
1027.90;  -26.900;  -40.300;    9.400;26.96177
1028.45;  -24.600;  -33.100;   -0.500;26.07362
1029.00;  -16.400;  -32.800;   -4.800;58.57143
1029.55;  -28.300;  -21.400;   -1.900;-35.38462
1030.10;  -17.000;  -20.600;   -4.900;22.92994
1030.65;  -23.100;  -31.200;   -0.300;26.21359
1031.20;  -24.900;  -35.700;   -6.800;37.37024
1031.75;  -28.200;  -18.000;   -8.400;-106.25000
1032.30;  -26.100;  -35.000;    4.600;22.47475
1032.85;  -37.500;  -33.600;   -9.100;-15.91837
1033.40;  -28.300;  -35.900;  -11.100;30.64517
1033.95;  -27.800;  -22.100;   -4.000;-31.49171
1034.50;  -18.500;  -43.700;  -14.100;85.13514
1035.05;  -31.200;  -23.700;   -0.500;-32.32758
1035.60;  -31.000;  -33.300;  -17.600;14.64968
1036.15;  -37.300;  -27.600;    1.600;-33.21918
1036.69;  -17.900;  -28.000;    1.400;34.35374
1037.24;  -26.700;  -33.500;    2.200;19.04762
1037.79;  -22.500;  -44.600;  -13.200;70.38216
1038.34;  -24.100;  -13.900;   -1.600;-82.92683
1038.89;   -7.800;  -39.700;   -6.600;96.37462
1039.44;  -34.600;  -20.700;    1.600;-62.33183
1039.99;  -25.800;  -31.000;   -6.800;21.48760
1040.54;  -28.500;  -33.200;  -19.700;34.81482
1041.09;  -25.200;  -29.200;   -1.200;14.28572
1041.64;  -36.000;  -21.300;    6.300;-53.26087
1042.18;  -16.600;  -18.500;   -0.600;10.61453
1042.73;  -33.500;  -18.600;   -8.700;-150.50504
1043.28;  -25.600;  -31.900;   -5.900;24.23077
1043.83;  -24.000;  -29.200;  -12.700;31.51515
1044.38;  -26.200;  -37.400;   -7.100;36.96370
1044.93;  -27.200;  -37.500;  -10.300;37.86765
1045.48;  -17.900;  -42.100;   -5.500;66.12022
1046.02;  -28.500;  -34.300;   -4.800;19.66101
1046.57;  -28.000;  -34.700;  -12.000;29.51542
1047.12;  -24.100;  -27.600;  -13.800;25.36232
1047.67;  -29.400;  -26.200;  -13.200;-24.61538
1048.22;  -35.200;  -20.900;  -14.700;-230.64518
1048.77;  -23.300;  -28.300;  -16.700;43.10344
1049.31;  -34.300;  -31.400;  -22.800;-33.72094
1049.86;  -28.400;  -40.400;  -13.800;45.11279
1050.41;  -30.600;  -24.100;  -14.000;-64.35643
1050.96;  -19.100;  -41.000;   -6.000;62.57143
1051.51;  -26.500;  -30.900;  -18.200;34.64567
1052.05;  -22.900;  -22.700;  -15.800;-2.89854
1052.60;  -20.300;  -29.900;  -22.900;137.14286
1053.15;  -24.600;  -38.300;  -15.200;59.30736
1053.70;  -37.800;  -24.700;  -16.100;-152.32556
1054.25;  -17.300;  -23.100;  -12.900;56.86275
1054.79;  -29.300;  -16.600;  -16.700; 0.00000
1055.34;  -24.000;  -35.400;  -18.600;67.85715
1055.89;  -22.400;  -17.300;  -10.300;-72.85716
1056.44;  -29.300;  -28.000;  -11.200;-7.73810
1056.98;  -22.800;  -29.600;  -13.800;43.03798
1057.53;  -24.500;  -33.500;   -0.800;27.52294
1058.08;  -39.100;  -17.700;  -10.500;-297.22218
1058.63;  -28.600;  -43.600;  -14.900;52.26481
1059.17;  -28.800;  -28.900;  -17.500; 0.87719
1059.72;   -9.500;  -41.300;  -20.000;149.29578
1060.27;  -37.800;  -30.600;   -8.300;-32.28699
1060.81;  -30.200;  -33.900;   -7.300;13.90978
1061.36;  -21.300;  -20.400;  -12.000;-10.71429
1061.91;  -24.600;  -47.100;   -7.900;57.39796
1062.45;  -23.100;  -26.000;   -8.500;16.57143
1063.00;  -20.600;  -32.600;  -21.600;109.09091
1063.55;  -37.700;  -28.100;  -16.800;-84.95575
1064.10;  -18.500;  -40.800;  -13.000;80.21583
1064.64;  -26.200;  -14.300;  -10.900;-349.99997
1065.19;  -25.500;  -36.200;   -6.200;35.66667
1065.74;  -26.100;  -28.800;  -25.900;93.10345
1066.28;  -18.600;  -34.000;  -10.800;66.37931
1066.83;  -39.300;  -25.100;  -23.100;-709.99985
1067.38;  -31.800;  -33.900;   -6.900; 7.77778
1067.92;  -25.300;  -18.800;  -15.400;-191.17654
1068.47;  -16.200;  -46.400;  -26.300;150.24875
1069.01;  -28.400;  -20.400;  -18.000;-333.33340
1069.56;  -19.300;  -26.200;  -17.900;83.13253
1070.11;  -34.400;  -23.100;  -23.900; 0.00000
1070.65;  -22.200;  -43.000;   -7.100;57.93872
1071.20;  -38.100;  -27.400;  -17.300;-105.94060
1071.75;  -38.400;  -31.200;   -7.500;-30.37974
1072.29;  -20.000;  -20.000;  -11.800; 0.00000
1072.84;  -22.400;  -32.600;   -9.000;43.22034
1073.38;  -31.800;  -24.300;  -14.200;-74.25744
1073.93;  -32.800;  -39.500;  -14.800;27.12551
1074.48;  -29.100;  -23.900;  -16.000;-65.82279
1075.02;  -20.300;  -36.800;  -15.400;77.10280
1075.57;  -35.300;  -22.800;  -15.300;-166.66669
1076.11;  -21.800;  -27.200;  -21.700;98.18182
1076.66;  -32.400;  -12.500;  -19.300; 0.00000
1077.20;  -29.400;  -32.700;  -14.400;18.03279
1077.75;  -34.800;  -25.800;  -23.700;-428.57162
1078.29;  -25.800;  -44.100;  -17.300;68.28358
1078.84;  -35.000;  -24.700;  -19.900;-214.58328
1079.39;  -19.900;  -36.300;  -21.600;111.56463
1079.93;  -31.500;  -30.000;  -21.400;-17.44186
1080.48;  -24.700;  -36.100;  -21.000;75.49669
1081.02;  -36.600;  -24.500;  -15.500;-134.44444
1081.57;  -27.000;  -41.000;  -20.900;69.65174
1082.11;  -30.800;  -16.500;  -17.800; 0.00000
1082.66;  -17.000;  -33.200;  -26.700;249.23075
1083.20;  -21.200;  -19.800;  -26.400; 0.00000
1083.75;  -10.600;  -31.300;  -23.800;276.00002
1084.29;  -30.800;  -38.600;  -11.100;28.36363
1084.84;  -15.900;  -37.800;  -11.900;84.55598
1085.38;  -35.000;  -22.500;  -22.300; 0.00000
1085.93;  -26.200;  -30.900;  -19.800;42.34234
1086.47;  -17.900;  -22.900;  -20.800;238.09526
1087.02;  -24.300;  -46.100;  -14.400;68.76971
1087.56;  -22.700;  -26.700;  -24.100;153.84614
1088.10;  -18.500;  -32.100;  -30.700;971.42952
1088.65;  -28.500;  -21.900;  -16.500;-122.22224
1089.19;  -26.300;  -33.300;  -21.500;59.32203
1089.74;  -27.400;  -24.600;  -10.400;-19.71831
1090.28;  -29.000;  -34.800;  -22.000;45.31250
1090.83;  -31.400;  -19.800;  -13.500;-184.12702
1091.37;  -32.500;  -26.100;  -25.300; 0.00000
1091.92;  -15.100;  -13.900;  -19.900; 0.00000
1092.46;  -21.900;  -35.600;  -20.700;91.94631
1093.00;  -23.900;  -28.400;  -25.300;145.16130
1093.55;  -23.700;  -42.200;  -15.700;69.81132
1094.09;  -43.100;  -29.600;  -13.600;-84.37500
1094.64;  -34.400;  -42.300;  -27.000;51.63398
1095.18;  -37.600;  -32.600;  -21.300;-44.24781
1095.72;  -20.000;  -33.800;  -25.200;160.46512
1096.27;  -39.600;  -35.400;  -29.000;-65.62496
1096.81;  -27.300;  -36.200;  -16.900;46.11399
1097.35;  -23.600;  -22.200;  -29.100; 0.00000
1097.90;  -31.000;  -24.300;  -18.500;-115.51727
1098.44;  -43.200;  -32.100;  -17.100;-74.00002
1098.99;  -21.700;  -34.000;  -19.900;87.23404
1099.53;  -29.500;  -22.400;  -34.100; 0.00000
1100.07;  -18.200;  -45.000;  -35.700;288.17204

