
Integration time [ms]:   2.000
Averaging Nr. [scans]: 30
Smoothing Nr. [pixels]: 0
Data measured with spectrometer [name]: 1601059U1
Wave   ;Sample   ;Dark     ;Reference;Transmittance
[nm]   ;[counts] ;[counts] ;[counts] ;[%]

 200.09;    4.352;    1.574;   12.222;26.08668
 200.69;    2.125;   -9.329;   23.789;34.58716
 201.30;   -1.811;    0.472;   19.364;-12.08724
 201.90;   -0.975;   -2.996;   25.053; 7.20461
 202.50;    1.253;   -1.060;   13.689;15.68498
 203.10;   -2.742;   -6.662;   21.296;14.01976
 203.71;   -1.276;    0.605;   13.783;-14.27130
 204.31;   -2.343;   -4.062;   27.163; 5.50500
 204.91;    2.756;   -1.428;   22.425;17.54123
 205.51;    1.923;   -3.328;   20.286;22.23903
 206.12;   -0.977;   -0.095;   18.899;-4.64765
 206.72;    1.189;    1.539;   17.865;-2.14514
 207.32;   -3.010;   -5.728;   26.309; 8.48335
 207.92;   -2.411;    0.339;   18.425;-15.20077
 208.53;    1.290;    3.472;   21.999;-11.77690
 209.13;    1.758;   -7.362;   18.800;34.85872
 209.73;    1.393;    1.670;   25.446;-1.16352
 210.33;   -2.606;   -5.864;   34.130; 8.14600
 210.94;    1.755;    5.206;   16.755;-29.88003
 211.54;    2.459;   -7.363;   31.514;25.26534
 212.14;    3.958;    2.671;   19.679; 7.56574
 212.74;   -6.677;    4.039;   24.385;-52.66628
 213.34;    1.958;   -6.029;   25.867;25.04147
 213.95;    3.655;   -4.461;   23.290;29.24539
 214.55;    2.391;   -0.796;   23.504;13.11538
 215.15;    0.223;   -5.728;   26.505;18.46336
 215.75;    2.755;    0.772;   17.351;11.95883
 216.35;    5.827;    0.637;   24.788;21.48913
 216.96;    5.722;   -6.028;   12.772;62.49960
 217.56;   -2.378;    1.572;   18.748;-22.99585
 218.16;   -0.075;   -4.729;   21.524;17.73049
 218.76;   -5.041;   -4.296;   28.845;-2.24765
 219.36;   -1.676;    0.272;   15.743;-12.59114
 219.97;    3.655;   -2.194;   23.104;23.11981
 220.57;    0.485;   -1.026;    7.408;17.91112
 221.17;    4.061;   -3.531;   31.916;21.41689
 221.77;    2.056;  -10.695;   20.206;41.26201
 222.37;   -0.074;   -2.930;   26.858; 9.58636
 222.97;    3.689;   -3.228;   17.759;32.95690
 223.58;   -3.411;   -7.428;   26.369;11.88622
 224.18;   -0.443;   -4.728;   21.350;16.43171
 224.78;   -1.374;   -3.996;   24.906; 9.07443
 225.38;   -1.409;   -2.962;   27.263; 5.13828
 225.98;   -1.277;   -3.128;   22.169; 7.31817
 226.58;    3.257;    0.438;   13.396;21.75417
 227.19;   -1.809;   -8.295;   27.052;18.34882
 227.79;   -1.842;   -4.862;   22.156;11.18022
 228.39;   -2.577;   -3.661;   22.679; 4.11690
 228.99;   -1.680;   -6.193;    8.086;31.60822
 229.59;   -8.677;   -9.728;   17.385; 3.87890
 230.19;   -5.944;    0.205;   18.049;-34.46110
 230.79;    5.025;   -8.962;   22.653;44.24294
 231.40;    3.924;    1.404;   20.086;13.48933
 232.00;   -3.476;   -4.295;   18.235; 3.63770
 232.60;   -1.544;   -5.594;   14.156;20.50607
 233.20;   -1.174;  -13.097;   25.660;30.76416
 233.80;   -3.510;   -3.562;   14.897; 0.28294
 234.40;    1.891;   -2.162;   21.183;17.35919
 235.00;   -1.243;   -3.329;   25.296; 7.28596
 235.60;   -5.674;   -2.729;   32.118;-8.45120
 236.21;   -1.608;   -2.063;   22.470; 1.85265
 236.81;   -2.509;   -1.562;   29.362;-3.06207
 237.41;   -1.275;   -3.629;   27.190; 7.63810
 238.01;   -4.245;  -12.261;   19.853;24.95845
 238.61;   -4.645;   -4.761;   15.562; 0.57332
 239.21;   -6.541;   -0.696;   22.230;-25.49236
 239.81;    0.857;   -6.928;   16.417;33.34820
 240.41;    0.092;   -3.162;   28.189;10.37917
 241.01;    1.921;   -1.361;   10.459;27.76558
 241.62;   -2.275;   -0.996;   19.309;-6.29891
 242.22;    2.759;    1.204;   23.699; 6.91090
 242.82;   -2.277;   -8.961;   26.433;18.88386
 243.42;    0.992;   -0.629;   27.278; 5.80830
 244.02;    0.992;   -3.129;   32.808;11.46754
 244.62;    5.356;   -6.361;   19.038;46.13231
 245.22;    5.026;   -5.330;   29.002;30.16528
 245.82;   -3.810;   -8.595;   19.513;17.02146
 246.42;   -3.141;   -4.796;   29.881; 4.77275
 247.02;   -4.807;   -1.697;   24.045;-12.08150
 247.62;   -0.209;   -6.596;   28.564;18.16595
 248.22;   -4.377;   -2.128;   21.326;-9.59016
 248.82;    0.592;   -4.663;   25.332;17.51829
 249.43;   -1.013;   -2.860;   12.393;12.10744
 250.03;   -3.308;   -7.929;   27.786;12.93789
 250.63;   -3.976;   -0.595;   18.171;-18.01762
 251.23;   -0.541;    1.637;   23.691;-9.87467
 251.83;    1.089;   -7.761;   18.696;33.45040
 252.43;    2.695;   -2.497;   29.669;16.14086
 253.03;    3.594;   -1.164;   30.414;15.06611
 253.63;   -0.310;   -4.295;   29.359;11.84320
 254.23;  -11.507;   -4.763;   23.567;-23.80426
 254.83;   -2.573;   -9.030;   26.696;18.07363
 255.43;    0.690;   -1.195;   19.630; 9.05033
 256.03;    3.422;   -5.761;   21.048;34.25469
 256.63;   -0.110;   -6.129;   13.695;30.36241
 257.23;   -0.538;   -8.831;   32.512;20.05780
 257.83;    0.393;   -5.363;   18.986;23.63803
 258.43;   -0.477;   -1.595;   22.023; 4.73157
 259.03;   -7.779;   -4.560;    6.340;-29.52753
 259.63;   -2.807;   -9.930;   32.275;16.87830
 260.23;   -0.475;    1.337;   21.225;-9.11064
 260.83;   -1.443;   -7.295;   24.319;18.51232
 261.43;   -0.941;   -3.696;   22.305;10.59350
 262.03;   -6.571;  -11.398;   30.451;11.53315
 262.63;    2.222;   -2.294;   10.241;36.02910
 263.23;    0.424;    2.171;   24.433;-7.85142
 263.83;    0.128;   -5.364;   26.066;17.47386
 264.43;   -4.110;   -6.062;   24.568; 6.37324
 265.03;   -1.508;    2.604;   23.727;-19.47085
 265.63;    1.424;   -8.129;   21.579;32.15544
 266.23;   -3.244;   -2.761;   19.710;-2.14591
 266.83;   -3.775;   -0.496;   20.645;-15.51032
 267.43;   -0.778;   -4.961;   12.830;23.51274
 268.03;    5.726;   -4.630;   24.229;35.88312
 268.63;   -2.510;   -7.262;   21.449;16.55071
 269.23;   -4.771;    0.502;   36.076;-14.82378
 269.83;    0.025;   -8.262;   17.924;31.64799
 270.43;  -11.938;   -4.464;   33.670;-19.59914
 271.03;   -3.074;   -1.496;   25.239;-5.90266
 271.63;   -0.677;   -1.428;   26.256; 2.71490
 272.23;   -0.144;   -0.428;   18.894; 1.47005
 272.83;   -0.377;  -10.061;   21.894;30.30524
 273.43;   -2.505;    1.303;   32.829;-12.07861
 274.03;   -2.909;   -5.229;   24.964; 7.68291
 274.63;    0.892;   -2.063;   26.366;10.39318
 275.23;   -4.475;   -8.563;   29.775;10.66233
 275.83;   -2.241;   -0.030;   28.313;-7.80014
 276.43;   -5.212;   -4.094;   20.731;-4.50219
 277.02;   -2.275;    2.737;   16.666;-35.98476
 277.62;   -5.177;   -3.661;   22.126;-5.87862
 278.22;    3.627;   -5.530;   27.885;27.40506
 278.82;   -5.010;   -7.528;   23.729; 8.05603
 279.42;    0.424;   -7.595;   23.665;25.65418
 280.02;    0.695;   -5.664;   38.324;14.45758
 280.62;   -2.040;  -10.530;   30.425;20.72930
 281.22;   -4.674;   -4.296;   27.736;-1.18009
 281.82;   -4.110;   -8.662;   20.291;15.72348
 282.42;   -2.240;   -4.363;   27.076; 6.75166
 283.02;   -4.807;   -6.263;   26.346; 4.46476
 283.62;   -4.806;  -10.697;   31.900;13.82826
 284.22;   -1.279;   -8.027;   14.654;29.75289
 284.81;   -2.408;   -8.329;   22.630;19.12602
 285.41;    1.489;   -1.728;   21.467;13.87048
 286.01;   -1.140;   -1.463;   33.454; 0.92548
 286.61;    0.192;   -2.096;   21.275; 9.79181
 287.21;   -8.409;   -6.962;   28.485;-4.08121
 287.81;    1.223;   -3.228;   15.017;24.39476
 288.41;   -8.008;   -4.029;   30.945;-11.37458
 289.01;    3.557;   -7.362;   22.192;36.94622
 289.61;   -0.207;   -6.797;   37.974;14.71988
 290.20;   -4.710;   -6.729;   25.428; 6.27840
 290.80;    1.427;   -9.464;   25.008;31.59355
 291.40;   -2.676;    2.471;   34.527;-16.05618
 292.00;   -2.712;   -4.694;   26.283; 6.40058
 292.60;   -0.845;   -4.361;   21.762;13.45841
 293.20;    0.023;   -5.495;   33.352;14.20353
 293.80;   -4.012;    0.306;   30.380;-14.35801
 294.40;   -3.341;   -9.196;   42.526;11.32113
 294.99;   -3.312;   -6.294;   23.684; 9.94663
 295.59;  -10.442;   -4.662;   42.994;-12.12715
 296.19;   -5.313;   -5.794;   29.906; 1.34604
 296.79;   -6.009;   -8.462;   39.564; 5.10930
 297.39;   -2.942;   -7.029;   34.803; 9.77010
 297.99;   -2.111;   -2.428;   36.615; 0.81155
 298.59;   -2.544;   -4.795;   33.606; 5.86248
 299.18;    0.819;   -2.526;   26.208;11.64017
 299.78;   -7.178;   -8.394;   31.770; 3.02842
 300.38;   -4.942;   -6.129;   39.056; 2.62605
 300.98;   -4.880;   -3.593;   28.617;-3.99377
 301.58;   -1.846;   -2.694;   32.229; 2.42655
 302.18;   -7.411;   -7.561;   25.170; 0.45728
 302.77;   -6.473;   -8.064;   40.620; 3.26732
 303.37;    0.852;  -12.726;   19.867;41.65935
 303.97;   -6.443;   -8.395;   39.914; 4.04200
 304.57;   -5.314;   -5.360;   24.318; 0.15527
 305.17;   -6.774;   -7.196;   36.965; 0.95581
 305.76;   -8.045;   -8.461;   33.384; 0.99416
 306.36;   -4.344;   -6.128;   42.279; 3.68626
 306.96;    0.988;   -1.161;   32.472; 6.38914
 307.56;   -2.478;   -7.394;   37.705;10.90097
 308.16;   -4.111;   -9.761;   36.088;12.32469
 308.75;   -1.874;   -7.130;   39.448;11.28410
 309.35;   -0.148;   -8.492;   28.632;22.47629
 309.95;   -1.144;   -8.928;   34.024;18.12124
 310.55;    2.920;   -2.927;   34.025;15.82268
 311.15;   -7.973;   -9.664;   40.443; 3.37463
 311.74;    1.288;   -2.894;   31.155;12.28141
 312.34;   -8.410;   -2.062;   41.097;-14.70985
 312.94;    2.887;   -9.194;   30.718;30.26975
 313.54;   -7.775;  -14.096;   44.578;10.77168
 314.13;    0.589;   -8.694;   32.862;22.33863
 314.73;   -7.044;   -7.395;   34.001; 0.84676
 315.33;   -3.380;   -6.127;   30.641; 7.47157
 315.93;   -0.311;   -3.094;   36.949; 6.95111
 316.53;    2.052;   -4.593;   22.354;24.66095
 317.12;   -2.007;  -11.330;   42.748;17.23919
 317.72;   -4.283;   -6.659;   27.174; 7.02172
 318.32;    2.789;  -11.628;   39.446;28.22744
 318.92;   -3.847;   -7.160;   35.377; 7.78829
 319.51;   -5.480;  -13.660;   34.531;16.97533
 320.11;   -7.347;   -3.993;   30.374;-9.76071
 320.71;   -9.413;   -3.760;   33.010;-15.37131
 321.30;   -5.211;   -6.794;   35.560; 3.73806
 321.90;   -9.182;   -7.792;   23.793;-4.40037
 322.50;   -2.645;   -3.527;   37.579; 2.14558
 323.10;   -9.278;   -6.661;   32.713;-6.64717
 323.69;   -7.445;   -8.894;   34.496; 3.34144
 324.29;   -9.810;   -6.262;   35.680;-8.45974
 324.89;   -2.811;   -4.594;   28.027; 5.46650
 325.49;   -1.979;   -4.894;   32.622; 7.76818
 326.08;   -3.978;   -4.361;   35.514; 0.95987
 326.68;   -0.648;   -9.626;   33.832;20.65966
 327.28;   -6.115;   -9.592;   34.314; 7.91926
 327.87;   -9.847;   -7.360;   44.037;-4.84019
 328.47;   -8.914;   -4.727;   34.113;-10.78060
 329.07;   -1.678;   -5.894;   49.034; 7.67613
 329.67;    4.587;  -10.960;   39.228;30.97679
 330.26;   -7.146;  -12.761;   45.458; 9.64480
 330.86;   -5.016;   -7.659;   42.309; 5.28804
 331.46;  -10.517;  -11.792;   36.787; 2.62366
 332.05;   -2.880;    0.140;   51.724;-5.85438
 332.65;    0.490;  -10.029;   61.792;14.64627
 333.25;  -10.514;   -5.393;   53.395;-8.71071
 333.84;   -3.014;   -9.359;   56.496; 9.63467
 334.44;   -3.048;   -7.960;   62.151; 7.00597
 335.04;   -3.550;  -11.225;   58.624;10.98713
 335.63;   -2.885;  -11.524;   63.207;11.56029
 336.23;   -2.518;   -7.091;   74.106; 5.63136
 336.83;    0.810;    1.212;   65.412;-0.62556
 337.42;   -0.419;  -10.290;   77.330;11.26573
 338.02;   -2.191;  -12.488;   66.085;13.10552
 338.62;   -6.189;   -8.422;   93.375; 2.19399
 339.21;  -13.161;  -10.453;   88.389;-2.74004
 339.81;   -2.355;   -5.856;   96.375; 3.42449
 340.41;  -11.796;  -11.718;   85.850;-0.07999
 341.00;   -7.261;  -15.686;   95.184; 7.59914
 341.60;   -9.792;   -7.387;   87.593;-2.53229
 342.20;   -4.299;  -10.917;   72.494; 7.93385
 342.79;   -0.497;   -4.018;   67.966; 4.89217
 343.39;   -1.956;  -10.855;   83.024; 9.47907
 343.98;   -0.995;   -4.586;   53.588; 6.17277
 344.58;    0.240;   -9.453;   54.366;15.18837
 345.18;   -2.259;  -13.254;   50.663;17.20166
 345.77;   -4.623;  -11.122;   52.692;10.18412
 346.37;   -3.657;  -10.088;   54.287; 9.98940
 346.97;   -2.522;  -12.922;   58.641;14.53281
 347.56;   -5.057;   -7.355;   62.629; 3.28243
 348.16;   -2.820;   -7.257;   83.893; 4.86781
 348.75;   -5.656;  -11.855;   82.746; 6.55297
 349.35;   -0.124;   -5.888;   95.048; 5.70992
 349.95;   -3.430;   -6.319;   84.106; 3.19482
 350.54;   -0.796;   -5.852;   79.010; 5.95728
 351.14;   -8.929;    0.514;   62.428;-15.25246
 351.73;   -4.128;   -5.852;   51.894; 2.98563
 352.33;   -8.928;   -4.253;   49.550;-8.69034
 352.93;   -6.962;  -15.919;   70.965;10.30950
 353.52;   -0.397;  -12.785;   83.328;12.88935
 354.12;   -2.558;   -4.388;   91.846; 1.90089
 354.71;   -5.827;   -5.553;   75.794;-0.33717
 355.31;    3.177;  -10.355;   75.420;15.77567
 355.90;    3.640;   -9.420;   58.091;19.34504
 356.50;   -6.896;   -8.752;   69.106; 2.38428
 357.10;   -1.162;   -5.686;   52.006; 7.84137
 357.69;   -4.322;  -10.322;   60.957; 8.41726
 358.29;   -4.025;   -3.887;   65.961;-0.19719
 358.88;   -1.027;   -8.820;   66.407;10.35924
 359.48;   -4.559;  -11.654;   52.345;11.08644
 360.07;   -2.457;  -12.088;   59.923;13.37391
 360.67;    6.974;  -13.187;   52.052;30.90408
 361.26;   -9.891;   -8.188;   54.331;-2.72377
 361.86;   -4.661;  -12.686;   47.537;13.32485
 362.46;   -2.926;  -11.420;   55.569;12.68042
 363.05;   -8.394;   -7.020;   51.281;-2.35669
 363.65;   -6.654;   -9.623;   70.100; 3.72359
 364.24;   -5.660;   -9.420;   49.509; 6.37976
 364.84;   -1.823;   -8.688;   67.752; 8.98072
 365.43;   -6.391;  -11.221;   58.956; 6.88240
 366.03;   -4.358;   -1.787;   63.954;-3.91063
 366.62;   -1.060;   -4.820;   62.000; 5.62661
 367.22;   -5.025;   -5.021;   66.413;-0.00566
 367.81;   -2.991;   -9.521;   70.253; 8.18652
 368.41;   -4.358;   -9.188;   68.143; 6.24511
 369.00;   -0.326;  -19.587;   65.405;22.66240
 369.60;   -8.395;  -12.553;   69.761; 5.05169
 370.19;   -7.327;   -8.086;   68.162; 0.99544
 370.79;   -6.494;   -2.519;   77.160;-4.98883
 371.38;   -0.729;   -3.686;   61.223; 4.55523
 371.98;   -7.060;  -16.887;   82.696; 9.86843
 372.57;   -4.296;  -10.018;   69.378; 7.20702
 373.17;   -7.763;  -12.019;   78.697; 4.69132
 373.76;   -8.530;  -10.985;   63.956; 3.27504
 374.36;   -7.458;   -7.954;   87.414; 0.52086
 374.95;  -10.730;   -8.752;   66.366;-2.63379
 375.55;   -8.161;   -7.253;   77.737;-1.06914
 376.14;   -8.963;  -15.452;   70.494; 7.54942
 376.74;   -7.662;  -13.886;   78.935; 6.70531
 377.33;   -4.793;  -11.820;   83.945; 7.33851
 377.93;   -8.162;  -16.019;   76.625; 8.48133
 378.52;   -2.327;  -11.420;   80.857; 9.85349
 379.11;   -6.492;  -12.387;   80.525; 6.34451
 379.71;   -6.495;   -6.952;   75.483; 0.55424
 380.30;  -10.156;  -12.022;   97.750; 1.69966
 380.90;   -1.832;   -5.617;   80.628; 4.38877
 381.49;   -7.627;  -13.787;   98.971; 5.46269
 382.09;   -3.896;  -14.318;   87.708;10.21519
 382.68;   -0.858;   -8.455;   99.740; 7.02154
 383.28;   -6.227;  -15.320;   95.298; 8.21958
 383.87;   -9.092;  -13.154;  101.934; 3.52888
 384.46;    3.338;  -10.219;  103.524;11.91872
 385.06;   -8.591;  -12.954;  113.682; 3.44560
 385.65;   -6.998;   -6.985;  106.419;-0.01151
 386.25;   -4.956;  -11.422;  116.047; 5.07309
 386.84;  -12.794;   -4.520;  123.868;-6.44427
 387.44;   -0.561;   -6.219;  141.274; 3.83606
 388.03;  -14.294;   -7.753;  130.635;-4.72608
 388.62;   -0.291;  -14.555;  148.448; 8.75092
 389.22;   -7.963;   -8.719;  140.023; 0.50822
 389.81;   -1.390;  -12.555;  167.756; 6.19196
 390.41;   -3.959;  -12.254;  157.536; 4.88521
 391.00;   -9.126;  -11.187;  150.956; 1.27095
 391.59;   -3.658;   -5.421;  162.228; 1.05117
 392.19;  -14.691;  -14.321;  165.802;-0.20522
 392.78;   -6.061;  -11.086;  161.740; 2.90779
 393.38;   -5.960;  -19.820;  182.095; 6.86458
 393.97;   -2.927;  -11.120;  176.174; 4.37433
 394.56;   -9.993;   -8.854;  180.039;-0.60289
 395.16;   -5.464;  -12.918;  173.262; 4.00332
 395.75;    0.979;   -9.723;  190.992; 5.33200
 396.34;   -4.192;   -8.287;  189.470; 2.07092
 396.94;   -8.728;   -6.919;  185.421;-0.94014
 397.53;   -4.262;   -9.653;  201.319; 2.55531
 398.13;   -5.292;  -11.654;  200.124; 3.00387
 398.72;   -5.295;   -7.453;  206.983; 1.00622
 399.31;  -12.692;  -15.621;  233.944; 1.17346
 399.91;   -9.793;   -5.787;  225.344;-1.73340
 400.50;   -9.023;   -7.322;  244.912;-0.67462
 401.09;  -11.061;  -10.753;  235.996;-0.12468
 401.69;  -10.293;  -13.720;  254.139; 1.27972
 402.28;   -8.792;  -10.721;  255.626; 0.72424
 402.87;   -8.094;  -16.286;  273.414; 2.82772
 403.47;   -7.391;   -8.988;  278.323; 0.55596
 404.06;   -5.692;   -6.954;  288.151; 0.42754
 404.65;   -1.726;  -10.887;  283.636; 3.11054
 405.25;   -8.991;   -9.421;  310.614; 0.13463
 405.84;   -0.192;   -6.521;  303.423; 2.04174
 406.43;  -11.760;   -9.353;  322.695;-0.72484
 407.03;  -10.290;  -13.422;  332.779; 0.90460
 407.62;   -4.391;  -18.388;  345.733; 3.84407
 408.21;   -4.225;  -16.054;  345.361; 3.27295
 408.81;   -9.621;  -11.890;  363.262; 0.60474
 409.40;   -3.457;  -13.455;  373.081; 2.58645
 409.99;   -9.324;  -14.088;  396.165; 1.16118
 410.58;  -10.357;  -11.288;  405.929; 0.22322
 411.18;  -11.157;  -12.055;  429.193; 0.20353
 411.77;   -6.091;   -7.355;  448.293; 0.27739
 412.36;   -3.756;   -7.055;  474.596; 0.68489
 412.96;   -0.757;   -9.022;  480.340; 1.68897
 413.55;   -1.455;  -11.689;  512.696; 1.95157
 414.14;   -3.690;  -11.822;  509.261; 1.56048
 414.73;   -6.489;   -8.889;  566.146; 0.41722
 415.33;   -3.690;  -10.888;  530.868; 1.32861
 415.92;   -3.288;  -18.756;  585.669; 2.55921
 416.51;   -1.357;  -13.155;  575.242; 2.00505
 417.11;    0.177;   -7.455;  597.116; 1.26232
 417.70;    0.442;   -9.555;  598.238; 1.64480
 418.29;   -5.725;  -12.521;  614.551; 1.08374
 418.88;    2.512;   -5.523;  629.644; 1.26502
 419.48;    0.112;   -9.356;  662.983; 1.40813
 420.07;   -3.227;   -9.220;  643.343; 0.91835
 420.66;   -1.588;  -16.956;  686.169; 2.18563
 421.25;    2.344;  -11.655;  700.269; 1.96631
 421.85;    3.613;  -13.023;  744.118; 2.19727
 422.44;    6.212;   -9.423;  734.795; 2.10091
 423.03;    2.377;  -13.455;  753.436; 2.06454
 423.62;    8.011;  -13.006;  780.175; 2.64973
 424.21;   13.645;  -12.556;  806.881; 3.19751
 424.81;   16.111;   -1.822;  811.840; 2.20405
 425.40;   28.279;  -14.456;  879.821; 4.77878
 425.99;   30.874;  -11.120;  843.662; 4.91283
 426.58;   48.445;  -11.823;  929.560; 6.40206
 427.18;   62.341;   -7.120;  939.981; 7.33406
 427.77;   94.078;   -9.756;  975.163;10.54236
 428.36;  126.642;  -15.421;  992.155;14.09943
 428.95;  164.546;   -1.690; 1025.452;16.18436
 429.54;  225.278;  -17.356; 1084.041;22.02969
 430.14;  282.277;   -9.855; 1094.098;26.46244
 430.73;  350.478;  -10.689; 1112.628;32.15179
 431.32;  448.113;  -15.923; 1205.718;37.98468
 431.91;  503.209;  -11.088; 1170.989;43.50787
 432.50;  587.147;  -16.290; 1232.441;48.32401
 433.10;  648.848;  -12.057; 1227.720;53.30833
 433.69;  717.844;   -5.788; 1258.164;57.25153
 434.28;  722.309;  -11.188; 1241.091;58.57302
 434.87;  815.979;   -8.156; 1361.485;60.17158
 435.46;  797.212;  -11.623; 1318.729;60.79854
 436.05;  859.712;  -11.889; 1394.179;61.98854
 436.65;  859.945;   -4.756; 1388.995;62.04127
 437.24;  842.583;  -14.425; 1391.446;60.95919
 437.83;  866.483;   -8.325; 1392.104;62.46712
 438.42;  866.615;  -15.791; 1411.681;61.81598
 439.01;  867.911;   -9.456; 1439.699;60.54337
 439.60;  900.548;  -13.024; 1471.465;61.54122
 440.19;  906.011;  -12.089; 1472.242;61.85276
 440.79;  955.015;  -12.991; 1519.750;63.15522
 441.38;  987.080;  -15.757; 1536.891;64.58879
 441.97;  991.813;  -11.923; 1532.049;65.01000
 442.56; 1018.276;  -13.821; 1566.378;65.31440
 443.15; 1028.110;   -7.322; 1573.964;65.48039
 443.74; 1072.211;  -15.155; 1600.823;67.28840
 444.33; 1107.111;   -7.589; 1618.789;68.53879
 444.93; 1146.415;  -12.524; 1656.825;69.42462
 445.52; 1169.346;   -9.490; 1652.411;70.93298
 446.11; 1195.612;  -16.623; 1681.039;71.40616
 446.70; 1254.649;  -14.724; 1735.226;72.53764
 447.29; 1258.849;  -11.925; 1736.157;72.69535
 447.88; 1331.945;  -12.523; 1810.070;73.76677
 448.47; 1342.048;  -10.324; 1814.407;74.11353
 449.06; 1391.080;  -12.123; 1889.134;73.80395
 449.65; 1440.119;  -11.093; 1930.409;74.74686
 450.24; 1511.648;   -6.424; 2024.363;74.75291
 450.84; 1504.178;   -9.322; 2002.614;75.22607
 451.43; 1534.213;  -14.056; 2018.530;76.17239
 452.02; 1606.352;  -11.593; 2125.731;75.69958
 452.61; 1595.280;  -17.257; 2121.363;75.40082
 453.20; 1653.613;  -14.857; 2151.079;77.03229
 453.79; 1774.582;  -10.691; 2305.097;77.09137
 454.38; 1814.013;  -11.223; 2337.974;77.69617
 454.97; 1849.884;  -11.859; 2395.971;77.32037
 455.56; 1855.612;  -13.456; 2379.465;78.10824
 456.15; 1933.449;  -17.524; 2502.440;77.42066
 456.74; 1926.678;  -15.322; 2473.824;78.01869
 457.33; 1974.982;   -6.791; 2581.480;76.56743
 457.92; 1985.849;  -10.691; 2614.018;76.06710
 458.51; 2065.683;  -12.425; 2685.272;77.03267
 459.10; 2036.182;  -12.724; 2640.410;77.22586
 459.69; 2110.250;  -15.958; 2773.518;76.22249
 460.28; 2145.312;   -9.923; 2784.779;77.11861
 460.88; 2155.883;   -9.992; 2839.262;76.01552
 461.47; 2192.011;  -10.822; 2905.344;75.53868
 462.06; 2240.781;  -10.157; 2952.632;75.97360
 462.65; 2288.385;  -10.326; 3049.212;75.13260
 463.24; 2296.748;  -16.657; 3091.388;74.43280
 463.83; 2240.914;   -9.690; 3037.613;73.85560
 464.42; 2334.785;  -10.126; 3158.827;73.99639
 465.01; 2347.713;  -18.523; 3169.838;74.21480
 465.60; 2355.380;  -14.756; 3238.096;72.86331
 466.19; 2400.546;  -10.823; 3354.812;71.64676
 466.78; 2421.451;  -13.725; 3426.218;70.79116
 467.37; 2403.483;  -11.591; 3479.980;69.16868
 467.96; 2351.482;  -13.358; 3517.325;66.97967
 468.55; 2329.254;  -13.860; 3576.639;65.25874
 469.14; 2257.184;  -15.392; 3650.262;61.99646
 469.73; 2221.151;   -9.692; 3786.353;58.76756
 470.32; 2108.385;  -18.093; 3853.581;54.92399
 470.91; 2016.817;  -10.659; 3981.580;50.78544
 471.50; 1872.015;   -9.524; 4051.805;46.32817
 472.09; 1736.816;  -11.025; 4168.755;41.81656
 472.67; 1576.417;  -17.492; 4281.447;37.07679
 473.26; 1448.183;  -10.592; 4420.640;32.92031
 473.85; 1277.717;  -12.425; 4562.973;28.19736
 474.44; 1130.117;  -10.559; 4669.783;24.37164
 475.03; 1005.484;   -5.725; 4829.546;20.91318
 475.62;  871.845;  -15.889; 4940.616;17.91050
 476.21;  766.685;  -14.192; 5108.567;15.24330
 476.80;  671.150;  -15.558; 5253.217;13.03354
 477.39;  565.283;   -9.891; 5348.470;10.73414
 477.98;  491.653;  -11.360; 5540.583; 9.06012
 478.57;  441.418;  -13.959; 5782.210; 7.85652
 479.16;  368.251;   -9.126; 5900.145; 6.38619
 479.75;  325.481;  -15.891; 6083.465; 5.59685
 480.34;  277.916;  -12.658; 6191.943; 4.68320
 480.93;  240.886;  -12.760; 6287.305; 4.02609
 481.52;  209.416;  -14.892; 6555.684; 3.41383
 482.11;  175.716;  -15.291; 6688.665; 2.84918
 482.69;  145.952;  -10.093; 6779.939; 2.29814
 483.28;  133.284;   -4.125; 6951.759; 1.97544
 483.87;  119.719;  -15.359; 7153.262; 1.88430
 484.46;   93.554;   -0.794; 7302.795; 1.29180
 485.05;   84.717;  -11.492; 7440.793; 1.29100
 485.64;   76.281;  -11.057; 7619.571; 1.14457
 486.23;   63.983;   -7.558; 7744.619; 0.92284
 486.82;   54.652;  -13.426; 7958.320; 0.85400
 487.41;   56.114;  -14.290; 8148.747; 0.86248
 488.00;   41.453;   -5.560; 8303.795; 0.56579
 488.58;   46.086;   -4.493; 8240.657; 0.61343
 489.17;   34.451;  -12.659; 8333.357; 0.56446
 489.76;   34.284;  -14.725; 8689.415; 0.56306
 490.35;   30.054;  -11.294; 8918.863; 0.46301
 490.94;   26.778;  -14.922; 8926.017; 0.46639
 491.53;   19.354;   -9.293; 8917.279; 0.32092
 492.12;   22.318;  -19.192; 9215.367; 0.44951
 492.70;   21.318;  -22.626; 9364.556; 0.46812
 493.29;   18.852;   -5.059; 9234.850; 0.25878
 493.88;   20.518;  -14.059; 9438.022; 0.36582
 494.47;   18.816;   -9.625; 9582.590; 0.29650
 495.06;    9.819;  -16.660; 9657.718; 0.27370
 495.65;   14.818;  -18.959; 9674.048; 0.34847
 496.24;   15.618;  -12.059; 9879.459; 0.27980
 496.82;   12.884;  -12.159; 9910.372; 0.25238
 497.41;   20.688;   -8.594;10065.971; 0.29065
 498.00;   20.447;  -18.590;10138.841; 0.38432
 498.59;   17.453;  -18.593;10355.975; 0.34744
 499.18;    8.182;  -15.924;10312.795; 0.23339
 499.77;    7.083;  -15.425;10401.648; 0.21607
 500.35;    5.982;  -11.524;10528.389; 0.16609
 500.94;    2.620;  -15.893;10647.241; 0.17362
 501.53;   -6.680;  -13.560;10862.340; 0.06326
 502.12;   -0.582;  -19.726;10847.879; 0.17615
 502.71;   -3.418;  -10.791;10979.423; 0.06709
 503.29;   -2.415;  -20.026;11148.654; 0.15768
 503.88;    1.548;   -7.424;11321.461; 0.07920
 504.47;   -6.581;  -13.593;11289.720; 0.06203
 505.06;   -7.188;  -12.456;11314.626; 0.04651
 505.65;   -6.848;  -16.126;11641.321; 0.07959
 506.23;  -12.149;  -10.659;11799.295;-0.01262
 506.82;   -8.848;  -13.893;12045.121; 0.04183
 507.41;   -7.012;   -6.560;12135.371;-0.00372
 508.00;   -8.147;  -13.493;12054.341; 0.04430
 508.58;  -10.082;  -13.393;12387.863; 0.02670
 509.17;  -13.648;  -17.593;12621.107; 0.03121
 509.76;   -6.715;  -15.993;12598.976; 0.07355
 510.35;  -10.379;  -14.460;12867.499; 0.03168
 510.93;   -4.080;  -17.626;13012.786; 0.10396
 511.52;   -6.482;   -8.392;13331.918; 0.01432
 512.11;    4.052;  -16.560;13419.756; 0.15340
 512.70;  -10.948;  -16.593;13588.561; 0.04149
 513.28;   -9.116;  -14.358;13713.389; 0.03819
 513.87;   -7.546;  -15.594;13980.343; 0.05750
 514.46;   -6.880;  -10.160;14183.543; 0.02311
 515.05;  -11.611;  -21.361;14348.393; 0.06785
 515.63;   -9.685;  -11.191;14616.682; 0.01029
 516.22;   -9.585;  -17.424;14671.582; 0.05337
 516.81;  -10.516;  -10.925;14787.109; 0.00276
 517.39;  -11.547;  -13.693;14842.702; 0.01444
 517.98;  -11.478;   -8.928;15017.253;-0.01698
 518.57;   -8.179;  -16.660;15339.966; 0.05523
 519.16;   -8.948;  -11.293;15457.843; 0.01516
 519.74;   -9.043;  -15.062;15800.913; 0.03805
 520.33;  -12.216;  -15.325;15701.871; 0.01978
 520.92;   -8.514;   -8.726;15894.254; 0.00133
 521.50;  -13.146;  -12.394;16147.001;-0.00466
 522.09;   -6.481;  -10.726;16420.072; 0.02583
 522.68;   -8.616;  -14.192;16380.698; 0.03401
 523.26;  -13.545;  -16.361;16667.613; 0.01688
 523.85;  -10.011;   -9.861;16856.889;-0.00089
 524.44;   -9.216;  -10.892;16967.907; 0.00987
 525.03;  -12.550;  -16.058;17137.240; 0.02045
 525.61;   -9.981;  -22.793;17231.592; 0.07425
 526.20;  -16.549;  -13.059;17341.105;-0.02011
 526.79;   -8.311;  -19.728;17481.199; 0.06524
 527.37;   -7.915;  -13.992;17609.539; 0.03448
 527.96;  -13.611;  -10.361;17704.238;-0.01834
 528.54;  -10.314;  -13.560;17994.370; 0.01802
 529.13;  -10.212;  -14.094;17913.151; 0.02165
 529.72;  -11.416;  -14.859;17972.470; 0.01914
 530.30;  -14.713;  -12.393;18108.541;-0.01280
 530.89;  -15.215;  -13.659;18145.149;-0.00857
 531.48;  -16.778;  -20.561;18037.035; 0.02095
 532.06;  -10.312;  -18.961;18154.347; 0.04759
 532.65;  -14.880;  -19.693;18357.506; 0.02619
 533.24;  -13.946;  -14.027;18417.396; 0.00044
 533.82;   -9.947;  -21.193;18442.084; 0.06092
 534.41;  -16.346;  -12.827;18318.033;-0.01920
 534.99;  -10.916;  -13.626;18343.769; 0.01476
 535.58;   -9.479;  -13.027;18690.427; 0.01897
 536.17;   -8.913;  -18.794;18521.112; 0.05330
 536.75;   -7.384;   -9.091;18501.498; 0.00923
 537.34;  -14.375;  -13.996;18854.514;-0.00201
 537.92;  -12.315;  -13.792;18893.298; 0.00781
 538.51;   -6.412;  -11.694;18745.273; 0.02816
 539.10;  -16.781;  -17.660;18909.468; 0.00464
 539.68;  -11.346;  -13.560;18819.422; 0.01176
 540.27;  -13.910;  -10.228;18759.651;-0.01961
 540.85;  -16.446;  -26.727;19234.482; 0.05337
 541.44;  -14.178;  -17.595;19124.578; 0.01785
 542.03;   -6.147;   -8.927;19171.452; 0.01450
 542.61;   -4.650;  -13.192;19432.770; 0.04393
 543.20;   -7.577;  -10.261;19633.258; 0.01366
 543.78;  -12.914;   -7.527;19680.077;-0.02736
 544.37;   -8.608;  -16.529;20119.550; 0.03934
 544.95;  -10.046;  -18.194;20262.549; 0.04017
 545.54;  -13.979;  -11.727;20244.876;-0.01111
 546.12;  -10.479;   -9.627;20581.821;-0.00414
 546.71;   -8.945;  -13.661;20809.805; 0.02265
 547.30;  -11.980;   -6.427;20963.475;-0.02648
 547.88;  -15.144;  -14.361;21280.311;-0.00368
 548.47;   -9.712;  -12.927;21708.990; 0.01480
 549.05;   -8.680;  -13.793;22038.278; 0.02319
 549.64;  -12.650;  -14.425;22392.583; 0.00792
 550.22;  -14.280;  -21.793;22923.356; 0.03274
 550.81;  -12.715;  -15.892;23057.992; 0.01377
 551.39;  -16.547;  -15.026;23342.930;-0.00651
 551.98;   -8.846;  -17.693;23420.379; 0.03775
 552.56;  -18.678;  -13.661;24101.420;-0.02081
 553.15;  -15.214;   -8.360;24334.832;-0.02816
 553.73;   -8.043;  -20.228;24716.835; 0.04926
 554.32;  -10.346;  -13.727;25062.291; 0.01349
 554.90;  -14.612;  -16.260;25056.001; 0.00657
 555.49;   -4.913;  -13.427;25271.252; 0.03367
 556.07;  -20.244;  -11.361;25648.326;-0.03462
 556.66;  -13.212;  -10.094;26137.032;-0.01193
 557.24;  -12.014;  -17.226;26434.661; 0.01970
 557.83;  -11.783;  -19.292;26377.429; 0.02845
 558.41;  -14.444;  -17.695;26786.872; 0.01213
 559.00;  -19.312;  -15.661;26774.661;-0.01363
 559.58;  -15.345;  -13.227;27222.530;-0.00778
 560.17;   -9.978;  -15.794;27742.987; 0.02095
 560.75;   -9.446;  -14.294;28029.176; 0.01729
 561.34;  -16.147;  -15.027;28233.061;-0.00396
 561.92;  -10.483;  -16.525;28893.618; 0.02090
 562.50;  -14.213;  -25.760;28899.465; 0.03992
 563.09;  -12.214;  -13.826;29187.399; 0.00552
 563.67;  -13.816;  -14.725;29410.638; 0.00309
 564.26;   -9.413;  -15.627;29852.736; 0.02080
 564.84;   -9.616;  -12.059;30019.963; 0.00814
 565.43;  -10.809;  -16.062;30512.592; 0.01721
 566.01;  -14.044;  -18.961;30496.450; 0.01611
 566.60;  -12.849;  -17.225;30684.822; 0.01425
 567.18;  -10.512;  -20.094;31136.008; 0.03075
 567.76;  -11.314;  -18.060;31308.036; 0.02153
 568.35;  -11.914;  -10.760;31262.796;-0.00369
 568.93;  -11.413;  -21.660;31461.413; 0.03255
 569.52;  -13.649;  -16.992;31764.842; 0.01052
 570.10;  -10.280;  -21.960;32150.939; 0.03630
 570.68;  -14.113;  -14.427;31907.894; 0.00098
 571.27;  -17.478;  -15.894;31941.256;-0.00495
 571.85;  -19.409;  -19.262;32036.064;-0.00046
 572.44;  -17.878;  -17.961;32327.167; 0.00026
 573.02;  -13.184;  -22.458;32153.637; 0.02882
 573.60;  -17.178;  -23.194;32409.333; 0.01855
 574.19;   -9.312;  -13.027;32099.979; 0.01157
 574.77;  -16.212;  -24.294;32594.969; 0.02477
 575.36;  -10.817;  -15.892;32395.302; 0.01566
 575.94;  -15.982;  -16.826;32783.989; 0.00257
 576.52;  -12.780;  -10.693;32494.378;-0.00642
 577.11;  -13.381;  -18.426;33061.165; 0.01525
 577.69;  -15.046;  -20.594;32827.364; 0.01689
 578.27;   -8.577;   -9.628;32551.026; 0.00323
 578.86;  -10.813;  -16.294;32886.750; 0.01666
 579.44;  -20.012;   -8.327;33164.212;-0.03522
 580.02;  -15.548;  -14.193;32735.975;-0.00414
 580.61;  -12.448;  -19.059;33331.088; 0.01982
 581.19;  -10.512;  -14.561;33445.291; 0.01210
 581.77;  -16.746;  -19.460;33767.365; 0.00803
 582.36;  -13.049;  -17.026;33758.035; 0.01177
 582.94;  -11.081;  -10.293;33914.618;-0.00232
 583.52;   -6.210;  -13.128;34156.375; 0.02025
 584.11;   -9.814;  -18.793;33809.147; 0.02654
 584.69;   -9.515;  -14.859;34462.408; 0.01550
 585.27;  -15.212;  -14.827;34952.219;-0.00110
 585.86;   -9.278;  -14.127;34442.192; 0.01407
 586.44;  -16.145;  -13.828;34846.535;-0.00665
 587.02;  -16.549;  -16.359;34695.585;-0.00055
 587.61;  -15.947;  -16.860;35078.971; 0.00260
 588.19;   -9.412;  -16.394;35247.784; 0.01980
 588.77;   -9.775;  -19.496;35188.004; 0.02761
 589.36;  -12.614;  -19.626;35254.158; 0.01988
 589.94;  -12.679;  -15.694;35233.074; 0.00855
 590.52;  -10.247;  -17.060;35594.407; 0.01913
 591.10;  -13.313;  -17.093;35688.577; 0.01059
 591.69;  -15.747;  -15.626;35831.069;-0.00034
 592.27;   -6.814;  -17.093;35812.939; 0.02869
 592.85;  -17.682;   -9.459;35612.497;-0.02308
 593.43;  -17.344;  -15.861;35722.843;-0.00415
 594.02;  -12.213;  -19.527;35938.736; 0.02034
 594.60;  -13.447;  -19.027;36382.772; 0.01533
 595.18;  -12.181;  -17.393;35958.722; 0.01449
 595.76;  -15.143;  -18.762;36358.818; 0.00995
 596.35;  -11.316;  -18.025;36382.474; 0.01843
 596.93;  -15.880;  -16.327;36551.138; 0.00122
 597.51;  -14.278;  -21.461;36563.691; 0.01963
 598.09;  -11.245;  -17.994;36946.931; 0.01826
 598.68;  -12.513;  -10.827;36984.325;-0.00456
 599.26;  -12.745;  -19.394;37204.088; 0.01786
 599.84;  -11.714;  -15.226;37603.360; 0.00934
 600.42;  -12.779;  -13.094;37766.623; 0.00083
 601.01;  -15.981;  -16.193;37594.443; 0.00056
 601.59;  -15.215;  -16.693;37941.160; 0.00389
 602.17;  -14.845;  -22.128;38057.260; 0.01913
 602.75;  -13.777;  -16.795;38243.681; 0.00789
 603.33;  -15.451;  -16.925;38020.581; 0.00387
 603.92;  -16.548;  -15.160;38433.515;-0.00361
 604.50;  -13.447;  -13.627;38645.698; 0.00047
 605.08;  -12.210;  -16.528;38642.120; 0.01117
 605.66;  -13.614;  -17.926;39060.884; 0.01103
 606.24;  -15.646;  -18.727;39324.694; 0.00783
 606.83;  -12.780;  -16.327;39411.877; 0.00899
 607.41;  -13.748;  -21.459;39729.125; 0.01940
 607.99;  -16.613;  -15.627;39850.486;-0.00247
 608.57;  -13.779;  -20.594;39940.612; 0.01705
 609.15;  -13.717;  -11.558;40008.249;-0.00540
 609.73;  -21.216;  -15.559;39714.907;-0.01424
 610.32;   -6.716;   -7.059;39875.836; 0.00086
 610.90;  -14.847;  -14.927;40095.739; 0.00020
 611.48;  -16.478;  -15.594;39964.157;-0.00221
 612.06;  -18.780;  -14.493;40048.780;-0.01070
 612.64;  -13.315;  -11.993;39931.373;-0.00331
 613.22;  -13.773;  -12.364;39925.275;-0.00353
 613.80;  -11.614;  -20.626;39652.819; 0.02272
 614.39;  -11.277;  -23.428;39399.423; 0.03082
 614.97;  -14.911;   -8.594;39524.639;-0.01598
 615.55;  -10.043;  -25.362;38912.963; 0.03934
 616.13;  -15.343;  -20.595;39316.933; 0.01335
 616.71;  -17.675;  -12.662;38721.568;-0.01294
 617.29;  -12.176;  -19.995;37755.073; 0.02070
 617.87;  -14.009;  -19.829;38085.550; 0.01527
 618.45;  -15.313;  -14.527;37846.626;-0.00208
 619.04;  -20.778;  -17.528;37289.444;-0.00871
 619.62;  -18.350;  -20.025;37943.174; 0.00441
 620.20;  -13.309;  -17.895;38391.534; 0.01194
 620.78;  -14.876;  -15.129;38194.062; 0.00066
 621.36;  -16.378;  -25.428;37743.645; 0.02396
 621.94;  -18.549;  -10.326;37734.841;-0.02178
 622.52;  -17.585;  -13.957;37595.721;-0.00965
 623.10;  -13.123;  -20.288;39101.461; 0.01832
 623.68;  -15.250;  -23.858;40315.717; 0.02134
 624.26;  -13.518;  -16.058;40160.547; 0.00632
 624.84;  -10.446;  -16.061;41075.391; 0.01366
 625.42;  -14.585;  -18.224;41116.511; 0.00885
 626.01;  -13.284;  -19.791;40765.194; 0.01595
 626.59;  -11.826;  -12.420;40812.406; 0.00145
 627.17;  -14.088;  -13.189;41450.075;-0.00217
 627.75;  -20.116;  -21.125;40866.620; 0.00247
 628.33;  -17.947;  -19.827;41393.566; 0.00454
 628.91;  -22.849;  -18.992;41286.740;-0.00934
 629.49;  -18.550;  -20.491;41599.991; 0.00466
 630.07;  -17.317;  -15.925;41647.144;-0.00334
 630.65;  -11.249;  -24.592;42342.638; 0.03149
 631.23;  -13.149;  -19.025;42250.062; 0.01390
 631.81;  -19.449;  -17.959;41766.984;-0.00357
 632.39;  -13.249;  -17.692;41808.152; 0.01062
 632.97;  -12.914;  -16.793;42447.446; 0.00913
 633.55;  -14.079;  -12.960;42650.208;-0.00262
 634.13;  -16.484;  -23.291;42300.975; 0.01608
 634.71;  -14.350;  -14.392;41851.783; 0.00010
 635.29;  -16.015;  -19.192;42251.866; 0.00752
 635.87;  -14.319;  -14.157;42058.198;-0.00038
 636.45;  -14.216;  -18.025;42439.037; 0.00897
 637.03;  -19.581;  -18.860;42233.412;-0.00171
 637.61;  -18.649;  -21.192;42312.641; 0.00601
 638.19;  -20.517;  -20.525;42352.100; 0.00002
 638.77;  -13.950;  -14.625;42526.655; 0.00159
 639.35;  -22.150;  -12.925;42749.848;-0.02157
 639.93;  -19.084;  -20.458;42760.915; 0.00321
 640.51;  -10.883;  -19.292;42407.614; 0.01982
 641.09;  -11.516;  -15.758;42337.156; 0.01002
 641.67;  -16.750;  -18.025;42697.665; 0.00299
 642.25;  -10.350;  -19.058;42378.574; 0.02054
 642.83;  -21.083;  -13.725;42262.249;-0.01740
 643.41;  -13.450;  -22.292;42573.092; 0.02076
 643.99;  -14.650;  -10.359;42090.967;-0.01019
 644.57;  -17.250;  -16.459;42706.243;-0.00185
 645.14;  -13.316;  -22.725;42833.385; 0.02195
 645.72;  -12.349;  -23.725;42601.360; 0.02669
 646.30;  -17.749;  -22.959;42762.302; 0.01218
 646.88;  -13.149;  -22.025;42923.778; 0.02067
 647.46;  -17.149;  -23.959;43489.953; 0.01565
 648.04;  -19.316;  -14.392;43324.629;-0.01136
 648.62;  -12.949;  -14.492;43397.771; 0.00355
 649.20;  -15.583;  -13.725;43504.613;-0.00427
 649.78;  -16.283;  -19.292;43756.289; 0.00687
 650.36;  -21.983;  -17.792;43741.864;-0.00958
 650.94;  -22.016;  -16.859;43478.506;-0.01186
 651.52;  -21.216;  -20.859;43509.949;-0.00082
 652.09;  -17.482;  -16.292;43668.791;-0.00272
 652.67;  -18.816;  -17.825;43952.599;-0.00225
 653.25;  -16.849;  -19.626;43855.508; 0.00633
 653.83;  -14.549;  -17.192;43908.217; 0.00602
 654.41;  -10.916;  -18.192;44369.826; 0.01639
 654.99;  -18.049;  -13.592;44339.635;-0.01005
 655.57;  -10.149;  -21.592;43947.677; 0.02603
 656.15;  -25.482;  -19.492;44395.786;-0.01349
 656.72;  -11.149;  -13.192;44622.261; 0.00458
 657.30;  -13.815;  -11.226;45003.703;-0.00575
 657.88;  -20.915;  -16.792;45301.112;-0.00910
 658.46;  -23.149;  -17.726;45954.188;-0.01180
 659.04;  -12.882;  -19.459;46757.963; 0.01406
 659.62;  -18.349;  -19.792;47318.072; 0.00305
 660.20;  -10.648;  -21.992;48108.448; 0.02357
 660.77;  -16.615;  -10.059;48575.690;-0.01349
 661.35;  -19.582;  -14.292;48747.932;-0.01085
 661.93;  -18.482;  -17.059;49201.241;-0.00289
 662.51;  -18.148;  -19.593;49413.283; 0.00292
 663.09;  -19.748;  -20.126;49511.025; 0.00076
 663.67;  -17.682;  -18.359;49707.867; 0.00136
 664.24;  -16.648;  -16.593;49727.943;-0.00011
 664.82;  -18.748;  -15.193;49376.385;-0.00720
 665.40;  -21.448;  -21.326;49619.994;-0.00025
 665.98;  -15.815;  -21.793;49929.369; 0.01197
 666.56;  -21.515;  -16.526;49713.811;-0.01003
 667.13;  -15.748;  -15.926;49883.920; 0.00036
 667.71;  -18.915;  -16.993;49407.929;-0.00389
 668.29;  -24.315;  -14.493;47775.571;-0.02055
 668.87;  -20.815;  -16.926;46509.113;-0.00836
 669.44;  -21.548;  -18.959;47190.089;-0.00548
 670.02;  -11.181;  -19.126;47287.331; 0.01679
 670.60;  -16.214;  -15.659;46567.406;-0.00119
 671.18;  -17.114;  -19.959;46738.049; 0.00608
 671.76;  -15.314;  -18.593;47541.357; 0.00689
 672.33;  -21.014;  -22.760;47444.300; 0.00368
 672.91;  -20.814;  -17.760;47706.775;-0.00640
 673.49;  -15.781;  -18.693;47032.484; 0.00619
 674.07;  -13.481;  -17.860;47080.593; 0.00930
 674.64;  -12.081;  -19.760;46828.368; 0.01639
 675.22;  -17.914;  -17.893;47442.610;-0.00004
 675.80;  -19.214;  -22.593;47305.619; 0.00714
 676.38;  -10.247;  -21.993;47750.061; 0.02459
 676.95;  -20.747;  -21.826;47874.004; 0.00225
 677.53;  -24.714;  -22.960;47272.079;-0.00371
 678.11;  -20.281;  -24.926;48312.221; 0.00961
 678.68;  -18.814;  -27.493;48262.430; 0.01797
 679.26;  -19.147;  -17.026;48698.272;-0.00435
 679.84;  -16.814;  -17.293;48996.481; 0.00098
 680.42;  -17.080;  -19.426;48764.757; 0.00481
 680.99;  -15.780;  -19.793;48656.532; 0.00824
 681.57;  -15.580;  -22.827;49094.741; 0.01475
 682.15;  -17.214;  -16.527;49244.283;-0.00139
 682.72;  -16.580;  -20.793;49037.459; 0.00859
 683.30;  -18.447;  -14.493;49167.901;-0.00804
 683.88;  -17.013;  -24.427;49474.810; 0.01498
 684.45;  -20.713;  -20.293;49458.785;-0.00085
 685.03;  -17.713;  -15.593;49318.294;-0.00430
 685.61;  -13.547;  -16.093;48442.969; 0.00526
 686.18;  -17.847;  -20.393;48505.545; 0.00525
 686.76;  -18.513;  -19.527;48717.620; 0.00208
 687.34;  -16.580;  -17.627;48238.696; 0.00217
 687.91;  -19.513;  -17.560;48491.405;-0.00403
 688.49;  -17.713;  -20.560;47929.480; 0.00594
 689.07;  -16.880;  -15.127;47347.389;-0.00370
 689.64;  -18.213;  -19.693;47545.464; 0.00311
 690.22;  -16.613;  -16.460;48093.640;-0.00032
 690.80;  -13.346;  -21.360;47082.115; 0.01701
 691.37;  -12.846;  -14.760;46635.958; 0.00410
 691.95;  -15.013;  -21.760;46455.300; 0.01452
 692.53;  -18.113;  -10.127;46375.675;-0.01722
 693.10;   -8.380;  -19.160;45739.451; 0.02356
 693.68;  -12.346;  -17.327;44955.093; 0.01108
 694.25;  -17.479;  -18.227;45753.668; 0.00163
 694.83;  -22.979;  -20.594;45171.111;-0.00528
 695.41;  -18.513;  -16.894;44951.753;-0.00360
 695.98;  -19.913;   -9.227;45105.095;-0.02369
 696.56;  -24.313;  -19.727;44915.904;-0.01020
 697.13;  -15.846;  -15.727;44360.879;-0.00027
 697.71;  -15.646;  -20.327;43915.455; 0.01065
 698.29;  -13.579;   -3.627;44072.797;-0.02258
 698.86;  -17.046;  -20.594;42989.172; 0.00825
 699.44;  -16.512;  -17.294;43859.515; 0.00178
 700.01;  -20.279;  -21.827;43361.290; 0.00357
 700.59;  -22.312;  -25.794;42969.932; 0.00810
 701.16;  -18.379;  -17.527;42997.974;-0.00198
 701.74;  -13.346;  -18.261;42786.450; 0.01148
 702.32;  -14.412;  -17.094;42432.659; 0.00632
 702.89;  -19.279;  -24.394;42521.867; 0.01202
 703.47;  -13.912;  -24.594;42980.076; 0.02484
 704.04;  -16.479;  -17.027;41915.152; 0.00131
 704.62;  -21.379;  -17.127;41482.894;-0.01024
 705.19;  -13.079;  -17.194;41862.103; 0.00983
 705.77;  -13.912;  -16.894;41436.945; 0.00719
 706.34;  -16.379;  -22.394;41370.154; 0.01453
 706.92;  -13.879;  -21.194;41380.329; 0.01767
 707.49;  -18.912;  -14.127;40856.038;-0.01171
 708.07;  -16.012;  -20.727;41062.947; 0.01148
 708.64;  -18.678;  -18.561;40323.756;-0.00029
 709.22;  -18.512;  -18.027;40177.765;-0.00120
 709.79;  -20.578;  -16.661;40997.007;-0.00955
 710.37;  -18.112;  -19.128;40515.882; 0.00251
 710.94;  -17.178;  -18.461;40159.124; 0.00319
 711.52;  -23.512;  -21.294;39615.767;-0.00559
 712.09;  -19.312;  -20.328;39483.175; 0.00257
 712.67;  -18.478;  -21.561;39786.918; 0.00774
 713.24;  -14.778;  -14.561;38923.760;-0.00056
 713.82;  -20.845;  -21.194;38725.369; 0.00090
 714.39;  -16.111;  -15.794;39360.711;-0.00081
 714.97;  -15.278;  -15.994;39293.986; 0.00182
 715.54;  -12.478;  -25.694;38662.395; 0.03416
 716.12;  -16.945;  -22.694;38621.437; 0.01488
 716.69;  -17.911;  -24.894;38636.879; 0.01806
 717.27;  -13.744;  -28.028;38402.388; 0.03717
 717.84;  -17.278;  -24.561;38241.164; 0.01903
 718.42;  -21.278;  -24.494;38665.839; 0.00831
 718.99;  -20.778;  -15.894;37838.281;-0.01290
 719.57;  -16.711;  -16.295;37181.490;-0.00112
 720.14;  -13.711;  -17.661;37468.666; 0.01054
 720.71;  -14.678;  -13.561;36770.474;-0.00303
 721.29;  -20.044;  -14.328;37187.950;-0.01537
 721.86;  -15.244;  -19.061;37017.959; 0.01031
 722.44;  -14.744;  -12.828;36714.934;-0.00522
 723.01;  -17.211;  -21.195;36884.310; 0.01079
 723.59;  -13.111;  -18.061;36470.119; 0.01357
 724.16;  -15.977;  -30.328;35518.694; 0.04037
 724.73;  -11.777;  -20.228;35547.336; 0.02376
 725.31;  -16.677;  -16.195;35497.612;-0.00136
 725.88;  -17.444;  -17.828;35922.187; 0.00107
 726.46;  -14.444;  -22.561;35889.096; 0.02260
 727.03;   -8.344;  -17.795;35461.338; 0.02664
 727.60;  -22.210;  -26.128;35409.747; 0.01106
 728.18;  -19.877;  -21.195;35085.056; 0.00375
 728.75;  -16.677;  -19.661;34542.931; 0.00863
 729.32;  -16.277;  -20.595;34219.474; 0.01261
 729.90;  -17.444;  -18.828;34112.282; 0.00406
 730.47;  -21.244;  -15.695;33692.991;-0.01646
 731.05;  -20.210;  -16.828;33669.467;-0.01004
 731.62;  -19.077;  -24.628;33692.909; 0.01646
 732.19;  -13.877;  -20.495;33068.051; 0.02000
 732.77;  -16.810;  -25.795;32970.060; 0.02723
 733.34;  -16.877;  -18.228;33155.802; 0.00407
 733.91;  -20.843;  -22.528;32882.777; 0.00512
 734.49;  -14.577;  -17.295;32368.920; 0.00839
 735.06;  -19.643;  -22.228;32171.728; 0.00803
 735.63;  -14.943;  -27.162;32245.471; 0.03786
 736.21;  -22.976;  -14.428;31694.246;-0.02696
 736.78;  -16.010;  -23.462;31569.288; 0.02359
 737.35;  -19.410;  -11.728;31259.464;-0.02456
 737.93;  -20.076;  -14.428;31083.973;-0.01816
 738.50;  -18.043;  -13.062;31056.281;-0.01603
 739.07;   -9.110;  -20.162;30949.057; 0.03569
 739.64;  -13.243;  -17.895;29758.532; 0.01562
 740.22;  -20.543;  -17.195;29551.075;-0.01132
 740.79;  -15.876;  -19.795;29451.717; 0.01330
 741.36;  -20.243;  -21.762;29131.859; 0.00521
 741.94;  -21.243;  -17.895;29100.234;-0.01150
 742.51;  -22.943;  -21.395;28742.510;-0.00538
 743.08;  -18.476;  -25.862;28030.585; 0.02633
 743.65;  -16.976;  -19.729;27741.294; 0.00992
 744.23;  -20.009;  -18.362;27395.303;-0.00601
 744.80;  -15.343;  -20.695;27148.312; 0.01970
 745.37;  -12.843;  -21.262;27274.154; 0.03085
 745.95;  -18.376;  -19.362;26902.830; 0.00366
 746.52;  -18.826;  -17.779;26312.788;-0.00398
 747.09;  -19.276;  -16.195;25722.747;-0.01197
 747.66;  -10.876;  -20.695;25596.589; 0.03833
 748.23;  -17.342;  -22.596;25620.732; 0.02049
 748.81;  -17.376;  -18.229;25396.540; 0.00336
 749.38;  -22.542;  -18.062;24694.482;-0.01813
 749.95;  -18.709;  -22.329;24228.091; 0.01493
 750.52;  -18.542;  -23.962;23846.733; 0.02271
 751.10;  -20.942;  -22.229;23866.109; 0.00539
 751.67;  -15.675;  -22.662;23444.751; 0.02977
 752.24;  -15.342;  -18.562;22995.293; 0.01399
 752.81;  -20.542;  -17.029;22773.902;-0.01541
 753.38;  -19.342;  -16.596;22239.744;-0.01234
 753.96;  -18.175;  -22.962;21907.053; 0.02183
 754.53;  -20.409;  -18.996;21510.262;-0.00656
 755.10;  -20.909;  -27.296;21651.537; 0.02946
 755.67;  -13.608;  -25.662;20541.513; 0.05861
 756.24;  -33.375;  -22.196;20298.488;-0.05501
 756.82;  -11.908;  -17.729;20210.264; 0.02878
 757.39;  -20.508;  -27.462;19779.706; 0.03511
 757.96;  -22.908;  -23.429;19225.748; 0.00271
 758.53;  -20.675;  -22.029;18955.124; 0.00714
 759.10;  -17.775;  -17.596;18926.633;-0.00094
 759.67;  -25.742;  -25.963;18519.875; 0.00119
 760.25;  -19.741;  -19.896;18328.550; 0.00084
 760.82;  -19.841;  -20.163;17885.926; 0.00179
 761.39;  -17.941;  -22.196;17785.068; 0.02389
 761.96;  -16.441;  -26.129;16883.943; 0.05729
 762.53;  -17.941;  -15.629;16820.586;-0.01373
 763.10;  -15.608;  -16.429;16255.661; 0.00505
 763.67;  -16.308;  -27.729;16031.137; 0.07112
 764.25;  -15.008;  -24.296;15629.345; 0.05934
 764.82;  -22.374;  -21.563;15274.087;-0.00531
 765.39;  -23.974;  -20.829;15376.896;-0.02043
 765.96;  -22.041;  -17.896;15187.138;-0.02726
 766.53;  -18.874;  -25.163;14719.081; 0.04265
 767.10;  -20.508;  -22.796;14265.456; 0.01602
 767.67;  -22.741;  -20.796;14010.398;-0.01386
 768.24;  -21.541;  -19.730;13758.840;-0.01315
 768.81;  -13.408;  -29.163;13586.516; 0.11571
 769.39;  -16.507;  -23.330;13259.791; 0.05136
 769.96;  -19.007;  -14.630;12911.434;-0.03387
 770.53;  -15.707;  -21.463;12557.542; 0.04576
 771.10;  -22.141;  -24.463;12222.918; 0.01896
 771.67;  -25.441;  -22.630;12310.160;-0.02279
 772.24;  -19.674;  -22.763;11886.002; 0.02594
 772.81;  -20.774;  -23.096;11521.744; 0.02012
 773.38;  -19.774;  -23.196;11408.053; 0.02994
 773.95;  -19.441;  -22.930;11087.662; 0.03140
 774.52;  -19.807;  -21.663;10985.838; 0.01686
 775.09;  -23.807;  -23.430;10595.680;-0.00355
 775.66;  -21.907;  -26.263;10504.789; 0.04136
 776.23;  -19.840;  -23.830;10269.764; 0.03876
 776.80;  -30.907;  -24.563; 9996.106;-0.06331
 777.37;  -20.874;  -20.963; 9658.815; 0.00093
 777.94;  -24.574;  -20.797; 9442.657;-0.03991
 778.51;  -19.407;  -17.230; 9270.399;-0.02344
 779.08;  -25.407;  -22.097; 9071.042;-0.03640
 779.65;  -17.107;  -26.997; 9158.650; 0.10767
 780.22;  -23.007;  -19.530; 9035.793;-0.03839
 780.79;  -22.573;  -25.397; 8672.001; 0.03246
 781.36;  -24.873;  -22.063; 8487.077;-0.03302
 781.93;  -20.207;  -20.697; 8244.919; 0.00593
 782.50;  -14.907;  -18.197; 7997.094; 0.04105
 783.07;  -16.073;  -23.730; 7822.437; 0.09759
 783.64;  -19.940;  -15.363; 7780.445;-0.05870
 784.21;  -21.740;  -22.030; 7708.688; 0.00376
 784.78;  -20.473;  -19.530; 7569.796;-0.01242
 785.35;  -22.873;  -25.863; 7410.472; 0.04021
 785.92;  -17.973;  -24.197; 7273.114; 0.08529
 786.49;  -19.940;  -17.997; 7224.123;-0.02683
 787.06;  -21.806;  -20.130; 6902.798;-0.02421
 787.63;  -21.206;  -23.664; 6912.107; 0.03543
 788.20;  -22.306;  -20.430; 6759.916;-0.02767
 788.77;  -17.339;  -19.464; 6743.692; 0.03141
 789.34;  -22.739;  -21.164; 6591.434;-0.02383
 789.91;  -20.873;  -22.597; 6506.076; 0.02641
 790.48;  -13.373;  -25.730; 6516.718; 0.18888
 791.05;  -21.806;  -24.630; 6287.694; 0.04474
 791.62;  -19.173;  -21.964; 6282.669; 0.04427
 792.19;  -22.639;  -25.564; 6130.411; 0.04751
 792.76;  -22.106;  -24.064; 6073.387; 0.03211
 793.33;  -14.072;  -26.664; 6113.996; 0.20505
 793.89;  -19.406;  -20.497; 6094.304; 0.01785
 794.46;  -19.372;  -21.730; 5792.580; 0.04056
 795.03;  -17.172;  -25.564; 5845.655; 0.14293
 795.60;  -19.839;  -20.364; 5707.698; 0.00916
 796.17;  -17.972;  -24.231; 5694.840; 0.10943
 796.74;  -14.872;  -28.131; 5689.548; 0.23188
 797.31;  -26.306;  -27.097; 5604.357; 0.01406
 797.88;  -15.305;  -20.664; 5550.333; 0.09618
 798.45;  -13.939;  -20.731; 5558.975; 0.12172
 799.01;  -14.439;  -22.031; 5547.184; 0.13632
 799.58;  -18.172;  -23.497; 5513.159; 0.09618
 800.15;  -19.272;  -22.431; 5329.668; 0.05902
 800.72;  -18.539;  -18.864; 5395.510; 0.00601
 801.29;  -17.905;  -25.231; 5350.252; 0.13628
 801.86;  -25.505;  -18.064; 5326.128;-0.13924
 802.43;  -21.872;  -25.731; 5261.337; 0.07299
 802.99;  -19.738;  -25.164; 5247.712; 0.10290
 803.56;  -16.438;  -22.297; 5256.788; 0.11099
 804.13;  -20.538;  -17.864; 5192.563;-0.05132
 804.70;  -18.238;  -21.531; 5231.572; 0.06268
 805.27;  -17.338;  -31.598; 5210.281; 0.27203
 805.84;  -20.605;  -24.864; 5217.756; 0.08124
 806.40;  -18.072;  -27.431; 5146.099; 0.18091
 806.97;  -18.972;  -21.564; 5227.641; 0.04939
 807.54;  -22.805;  -25.664; 5223.950; 0.05447
 808.11;  -17.938;  -22.031; 5059.458; 0.08054
 808.68;  -16.705;  -27.064; 5117.167; 0.20138
 809.24;  -16.605;  -22.264; 5173.709; 0.10892
 809.81;  -21.171;  -24.231; 5171.118; 0.05889
 810.38;  -22.105;  -20.931; 5148.194;-0.02270
 810.95;  -22.238;  -26.364; 5027.169; 0.08166
 811.52;  -17.705;  -20.231; 4972.478; 0.05061
 812.08;  -20.438;  -28.598; 4959.720; 0.16358
 812.65;  -14.904;  -22.731; 5047.162; 0.15438
 813.22;  -20.538;  -22.664; 4889.771; 0.04329
 813.79;  -17.571;  -17.831; 4849.913; 0.00534
 814.35;  -18.204;  -19.531; 4896.589; 0.02699
 814.92;  -19.504;  -29.031; 4956.864; 0.19108
 815.49;  -14.071;  -20.765; 4806.206; 0.13867
 816.06;  -25.504;  -21.531; 4838.915;-0.08174
 816.62;  -21.637;  -25.898; 4683.724; 0.09046
 817.19;  -16.137;  -23.531; 4665.800; 0.15767
 817.76;  -23.004;  -25.265; 4728.942; 0.04755
 818.33;  -18.504;  -24.565; 4788.751; 0.12591
 818.89;  -25.004;  -27.798; 4717.193; 0.05888
 819.46;  -19.404;  -30.931; 4654.268; 0.24604
 820.03;  -21.571;  -29.165; 4598.410; 0.16411
 820.60;  -17.837;  -25.365; 4613.486; 0.16227
 821.16;  -18.370;  -22.398; 4528.961; 0.08849
 821.73;  -21.437;  -27.965; 4528.437; 0.14326
 822.30;  -21.337;  -22.298; 4584.779; 0.02086
 822.86;  -28.170;  -18.765; 4496.321;-0.20831
 823.43;  -19.670;  -25.265; 4562.730; 0.12194
 824.00;  -20.170;  -24.032; 4579.406; 0.08388
 824.56;  -17.437;  -24.298; 4498.148; 0.15172
 825.13;  -18.304;  -21.465; 4564.257; 0.06894
 825.70;  -19.137;  -27.865; 4493.532; 0.19304
 826.26;  -15.370;  -30.532; 4513.808; 0.33363
 826.83;  -16.137;  -19.098; 4498.883; 0.06555
 827.40;  -22.870;  -21.198; 4463.659;-0.03728
 827.96;  -18.803;  -28.098; 4511.967; 0.20473
 828.53;  -18.470;  -16.765; 4482.509;-0.03789
 829.10;  -24.703;  -28.832; 4393.285; 0.09336
 829.66;  -20.970;  -20.198; 4462.060;-0.01721
 830.23;  -16.537;  -25.565; 4543.203; 0.19761
 830.80;  -22.103;  -19.698; 4404.111;-0.05436
 831.36;  -18.170;  -24.965; 4357.120; 0.15507
 831.93;  -19.436;  -23.498; 4342.962; 0.09303
 832.49;  -17.170;  -25.232; 4316.471; 0.18569
 833.06;  -24.136;  -28.599; 4298.680; 0.10312
 833.63;  -16.336;  -28.832; 4297.789; 0.28881
 834.19;  -21.436;  -30.099; 4279.898; 0.20098
 834.76;  -25.936;  -29.432; 4315.807; 0.08045
 835.33;  -20.969;  -19.599; 4231.715;-0.03225
 835.89;  -23.136;  -29.132; 4228.691; 0.14082
 836.46;  -21.136;  -26.699; 4267.666; 0.12953
 837.02;  -19.703;  -27.565; 4254.575; 0.18361
 837.59;  -19.336;  -24.632; 4247.784; 0.12396
 838.15;  -21.736;  -37.799; 4146.426; 0.38389
 838.72;  -13.303;  -25.932; 4083.735; 0.30731
 839.29;  -14.536;  -22.932; 4106.611; 0.20332
 839.85;  -20.702;  -25.099; 4142.486; 0.10549
 840.42;  -21.536;  -19.265; 4251.628;-0.05316
 840.98;  -14.502;  -28.232; 4155.804; 0.32815
 841.55;  -22.536;  -26.865; 4031.246; 0.10669
 842.11;  -25.136;  -25.265; 4039.155; 0.00319
 842.68;  -22.302;  -28.832; 4190.130; 0.15477
 843.24;  -11.702;  -25.299; 4040.039; 0.33445
 843.81;  -19.236;  -20.466; 3997.048; 0.03062
 844.38;  -18.402;  -16.299; 4000.723;-0.05236
 844.94;  -26.902;  -30.899; 4013.032; 0.09883
 845.51;  -13.069;  -25.999; 3940.941; 0.32595
 846.07;  -18.069;  -25.432; 4002.050; 0.18283
 846.64;  -17.302;  -17.966; 4009.959; 0.01648
 847.20;  -19.569;  -21.932; 4025.901; 0.05839
 847.77;  -25.802;  -28.999; 3893.810; 0.08150
 848.33;  -24.669;  -25.532; 3916.518; 0.02191
 848.90;  -22.102;  -21.232; 3951.027;-0.02189
 849.46;  -18.768;  -26.332; 3911.869; 0.19207
 850.03;  -26.035;  -27.999; 3888.678; 0.05014
 850.59;  -24.502;  -26.332; 3886.854; 0.04678
 851.16;  -23.702;  -24.999; 3741.096; 0.03445
 851.72;  -18.368;  -22.399; 3738.805; 0.10717
 852.29;  -18.735;  -23.466; 3731.080; 0.12600
 852.85;  -22.868;  -22.566; 3786.956;-0.00794
 853.41;  -21.935;  -19.599; 3766.231;-0.06169
 853.98;  -18.068;  -24.533; 3781.973; 0.16983
 854.54;  -22.035;  -25.566; 3645.649; 0.09618
 855.11;  -23.235;  -26.499; 3612.758; 0.08970
 855.67;  -18.001;  -23.799; 3687.933; 0.15621
 856.24;  -22.335;  -22.499; 3720.409; 0.00440
 856.80;  -24.868;  -25.699; 3665.551; 0.02252
 857.37;  -20.501;  -22.766; 3590.726; 0.06268
 857.93;  -19.068;  -25.233; 3559.735; 0.17196
 858.49;  -27.435;  -26.566; 3585.277;-0.02404
 859.06;  -24.101;  -22.699; 3478.520;-0.04003
 859.62;  -21.668;  -25.166; 3516.595; 0.09877
 860.19;  -16.901;  -25.133; 3507.570; 0.23302
 860.75;  -20.801;  -24.799; 3550.679; 0.11183
 861.31;  -22.768;  -27.466; 3466.955; 0.13446
 861.88;  -21.668;  -23.566; 3479.997; 0.05419
 862.44;  -23.801;  -31.433; 3456.939; 0.21878
 863.01;  -25.568;  -29.533; 3412.715; 0.11520
 863.57;  -23.034;  -19.033; 3430.957;-0.11598
 864.13;  -17.301;  -24.100; 3469.366; 0.19462
 864.70;  -24.601;  -28.233; 3395.174; 0.10610
 865.26;  -23.867;  -21.933; 3259.050;-0.05896
 865.82;  -22.067;  -20.966; 3327.659;-0.03288
 866.39;  -20.967;  -22.900; 3370.568; 0.05695
 866.95;  -23.201;  -21.766; 3250.210;-0.04383
 867.52;  -24.801;  -24.200; 3291.685;-0.01812
 868.08;  -16.900;  -26.433; 3330.894; 0.28393
 868.64;  -20.600;  -31.633; 3171.936; 0.34439
 869.21;  -22.867;  -23.100; 3137.012; 0.00736
 869.77;  -13.600;  -27.600; 3197.387; 0.43409
 870.33;  -19.500;  -30.567; 3135.763; 0.34950
 870.90;  -24.267;  -28.967; 3023.872; 0.15394
 871.46;  -23.434;  -24.767; 3044.714; 0.04343
 872.02;  -20.500;  -21.100; 3162.289; 0.01884
 872.58;  -26.167;  -24.400; 3070.698;-0.05709
 873.15;  -23.267;  -26.533; 2915.940; 0.11101
 873.71;  -21.267;  -32.067; 2952.782; 0.36182
 874.27;  -18.400;  -22.667; 2949.091; 0.14357
 874.84;  -19.167;  -20.533; 2947.300; 0.04605
 875.40;  -24.633;  -30.967; 2986.633; 0.20988
 875.96;  -22.067;  -23.233; 2960.200; 0.03910
 876.53;  -28.000;  -25.367; 2786.567;-0.09365
 877.09;  -21.733;  -25.667; 2789.433; 0.13972
 877.65;  -20.600;  -27.467; 2854.900; 0.23823
 878.21;  -20.800;  -24.367; 2792.267; 0.12663
 878.78;  -24.267;  -20.833; 2746.267;-0.12408
 879.34;  -22.833;  -22.600; 2742.400;-0.00844
 879.90;  -27.633;  -26.667; 2698.633;-0.03547
 880.46;  -18.233;  -26.967; 2680.700; 0.32254
 881.03;  -24.100;  -17.967; 2656.733;-0.22931
 881.59;  -25.100;  -22.133; 2608.900;-0.11276
 882.15;  -24.733;  -27.667; 2602.033; 0.11155
 882.71;  -24.667;  -27.433; 2674.867; 0.10238
 883.28;  -15.567;  -23.433; 2636.600; 0.29574
 883.84;  -21.533;  -30.533; 2599.967; 0.34214
 884.40;  -22.900;  -25.367; 2512.467; 0.09720
 884.96;  -24.333;  -24.133; 2481.000;-0.00798
 885.52;  -21.467;  -26.200; 2495.300; 0.18772
 886.09;  -24.533;  -24.933; 2474.800; 0.01600
 886.65;  -25.600;  -27.633; 2416.200; 0.08320
 887.21;  -21.000;  -20.367; 2416.533;-0.02599
 887.77;  -19.000;  -29.600; 2390.533; 0.43799
 888.33;  -20.833;  -24.667; 2312.100; 0.16404
 888.90;  -22.600;  -23.000; 2344.233; 0.01690
 889.46;  -22.067;  -26.800; 2369.533; 0.19752
 890.02;  -15.233;  -30.467; 2372.467; 0.63395
 890.58;  -18.567;  -28.900; 2321.233; 0.43969
 891.14;  -23.367;  -30.067; 2280.800; 0.28993
 891.70;  -25.067;  -28.700; 2338.833; 0.15346
 892.27;  -22.267;  -29.000; 2305.067; 0.28848
 892.83;  -18.400;  -26.300; 2290.567; 0.34098
 893.39;  -21.033;  -21.067; 2338.567; 0.00141
 893.95;  -21.567;  -27.300; 2278.067; 0.24870
 894.51;  -24.133;  -27.400; 2232.233; 0.14457
 895.07;  -17.067;  -26.967; 2295.133; 0.42634
 895.63;  -27.633;  -25.267; 2239.400;-0.10450
 896.20;  -25.567;  -23.033; 2229.267;-0.11248
 896.76;  -23.600;  -28.900; 2326.233; 0.22504
 897.32;  -22.533;  -25.800; 2318.200; 0.13936
 897.88;  -23.900;  -26.567; 2291.833; 0.11502
 898.44;  -17.067;  -26.200; 2308.867; 0.39114
 899.00;  -25.300;  -27.133; 2266.233; 0.07994
 899.56;  -18.967;  -25.667; 2272.633; 0.29152
 900.12;  -20.833;  -24.500; 2250.833; 0.16115
 900.68;  -20.200;  -23.933; 2233.500; 0.16538
 901.24;  -21.233;  -24.267; 2277.933; 0.13176
 901.81;  -27.700;  -27.167; 2321.267;-0.02271
 902.37;  -17.900;  -28.833; 2276.933; 0.47417
 902.93;  -26.467;  -24.067; 2185.000;-0.10864
 903.49;  -25.267;  -30.700; 2230.233; 0.24031
 904.05;  -24.667;  -30.133; 2269.167; 0.23775
 904.61;  -23.067;  -25.400; 2214.533; 0.10417
 905.17;  -18.333;  -20.733; 2139.633; 0.11109
 905.73;  -27.867;  -29.133; 2148.700; 0.05816
 906.29;  -22.800;  -27.867; 2192.467; 0.22819
 906.85;  -24.700;  -33.133; 2136.700; 0.38866
 907.41;  -19.533;  -22.867; 2158.700; 0.15280
 907.97;  -16.233;  -29.067; 2143.033; 0.59083
 908.53;  -22.533;  -23.333; 2134.767; 0.03707
 909.09;  -21.367;  -23.767; 2118.333; 0.11204
 909.65;  -19.667;  -21.500; 2039.467; 0.08896
 910.21;  -19.367;  -32.700; 2055.533; 0.63850
 910.77;  -19.100;  -31.467; 2005.367; 0.60715
 911.33;  -23.267;  -28.433; 2011.133; 0.25332
 911.89;  -19.833;  -29.133; 2003.733; 0.45748
 912.45;  -23.267;  -26.467; 2002.533; 0.15771
 913.01;  -26.467;  -27.300; 1953.067; 0.04208
 913.57;  -22.433;  -22.967; 1939.067; 0.02718
 914.13;  -23.167;  -23.833; 1903.900; 0.03458
 914.69;  -28.667;  -30.667; 1921.333; 0.10246
 915.25;  -17.800;  -27.700; 1939.867; 0.50316
 915.81;  -24.733;  -26.167; 1865.800; 0.07576
 916.37;  -17.667;  -22.400; 1868.500; 0.25032
 916.93;  -18.967;  -22.633; 1885.833; 0.19213
 917.49;  -19.900;  -28.933; 1825.800; 0.48704
 918.05;  -19.567;  -32.033; 1833.767; 0.66817
 918.61;  -22.433;  -27.367; 1856.067; 0.26193
 919.17;  -23.667;  -26.367; 1789.233; 0.14871
 919.73;  -27.433;  -27.167; 1814.533;-0.01448
 920.29;  -25.933;  -31.633; 1772.800; 0.31589
 920.85;  -19.400;  -29.300; 1757.600; 0.55403
 921.40;  -16.667;  -20.600; 1780.067; 0.21844
 921.96;  -29.933;  -27.800; 1743.100;-0.12047
 922.52;  -27.467;  -25.133; 1734.133;-0.13263
 923.08;  -24.167;  -32.400; 1672.167; 0.48302
 923.64;  -22.633;  -30.100; 1695.433; 0.43272
 924.20;  -27.433;  -25.733; 1673.467;-0.10005
 924.76;  -24.333;  -30.233; 1661.000; 0.34886
 925.32;  -19.833;  -24.367; 1607.800; 0.27775
 925.88;  -19.700;  -26.200; 1646.833; 0.38852
 926.44;  -16.800;  -28.000; 1651.033; 0.66705
 926.99;  -28.767;  -26.133; 1602.633;-0.16168
 927.55;  -19.800;  -26.300; 1592.667; 0.40149
 928.11;  -23.533;  -28.967; 1630.667; 0.32738
 928.67;  -20.433;  -25.900; 1598.633; 0.33651
 929.23;  -17.933;  -28.833; 1591.533; 0.67269
 929.79;  -24.800;  -23.133; 1578.000;-0.10409
 930.35;  -18.467;  -24.733; 1545.967; 0.39897
 930.90;  -28.433;  -26.367; 1574.567;-0.12909
 931.46;  -22.200;  -37.000; 1577.333; 0.91679
 932.02;  -21.833;  -24.833; 1532.233; 0.19267
 932.58;  -23.800;  -32.367; 1501.167; 0.55862
 933.14;  -24.433;  -21.033; 1493.100;-0.22455
 933.69;  -26.733;  -27.733; 1512.567; 0.06492
 934.25;  -21.433;  -25.867; 1497.767; 0.29097
 934.81;  -19.900;  -26.000; 1518.233; 0.39502
 935.37;  -17.200;  -22.367; 1444.167; 0.35230
 935.93;  -22.733;  -29.467; 1421.367; 0.46410
 936.49;  -28.067;  -24.967; 1447.467;-0.21054
 937.04;  -25.333;  -29.200; 1462.933; 0.25914
 937.60;  -21.700;  -28.167; 1462.100; 0.43393
 938.16;  -21.367;  -29.633; 1423.800; 0.56877
 938.72;  -22.833;  -23.200; 1385.233; 0.02603
 939.27;  -22.767;  -32.667; 1432.333; 0.67577
 939.83;  -21.533;  -22.933; 1387.300; 0.09927
 940.39;  -18.167;  -26.333; 1417.867; 0.56548
 940.95;  -25.967;  -20.000; 1374.600;-0.42784
 941.50;  -24.567;  -29.767; 1388.367; 0.36668
 942.06;  -21.967;  -26.867; 1388.667; 0.34616
 942.62;  -22.000;  -30.800; 1350.833; 0.63693
 943.18;  -20.133;  -23.233; 1333.100; 0.22856
 943.73;  -24.367;  -31.900; 1370.633; 0.53712
 944.29;  -24.600;  -24.533; 1346.000;-0.00486
 944.85;  -22.067;  -28.500; 1325.967; 0.47497
 945.41;  -26.933;  -34.267; 1286.433; 0.55526
 945.96;  -20.133;  -29.333; 1309.900; 0.68696
 946.52;  -29.533;  -31.200; 1316.467; 0.12367
 947.08;  -23.100;  -24.467; 1318.700; 0.10175
 947.63;  -19.633;  -27.933; 1277.933; 0.63559
 948.19;  -18.867;  -23.433; 1254.300; 0.35740
 948.75;  -24.600;  -25.667; 1240.300; 0.08426
 949.31;  -16.833;  -22.000; 1245.333; 0.40768
 949.86;  -24.933;  -27.267; 1242.733; 0.18373
 950.42;  -30.467;  -31.500; 1248.767; 0.08071
 950.98;  -29.200;  -28.500; 1239.500;-0.05521
 951.53;  -15.567;  -26.600; 1200.733; 0.89897
 952.09;  -19.800;  -30.200; 1193.700; 0.84974
 952.65;  -26.500;  -27.633; 1191.933; 0.09293
 953.20;  -20.233;  -26.167; 1202.067; 0.48308
 953.76;  -22.667;  -32.867; 1181.433; 0.83999
 954.32;  -21.967;  -28.433; 1150.600; 0.54847
 954.87;  -21.133;  -31.833; 1130.733; 0.92038
 955.43;  -20.400;  -33.233; 1157.600; 1.07768
 955.98;  -28.300;  -23.000; 1149.600;-0.45199
 956.54;  -18.700;  -24.567; 1166.967; 0.49236
 957.10;  -23.833;  -26.700; 1170.167; 0.23951
 957.65;  -27.667;  -33.600; 1102.600; 0.52221
 958.21;  -24.900;  -29.433; 1096.667; 0.40257
 958.77;  -21.367;  -22.333; 1072.967; 0.08826
 959.32;  -28.400;  -30.300; 1117.567; 0.16552
 959.88;  -24.800;  -28.433; 1119.500; 0.31651
 960.43;  -24.633;  -25.867; 1121.467; 0.10750
 960.99;  -21.867;  -33.167; 1072.733; 1.02179
 961.54;  -19.567;  -30.100; 1076.833; 0.95158
 962.10;  -23.900;  -29.133; 1038.833; 0.49003
 962.66;  -25.767;  -30.267; 1059.700; 0.41286
 963.21;  -31.867;  -21.600; 1061.167;-0.94819
 963.77;  -26.800;  -29.567; 1035.700; 0.25972
 964.32;  -23.100;  -22.733;  991.933;-0.03614
 964.88;  -24.533;  -40.300;  994.600; 1.52350
 965.43;  -22.167;  -26.267;  996.133; 0.40102
 965.99;  -26.500;  -34.167; 1013.900; 0.73151
 966.55;  -19.300;  -32.833; 1015.733; 1.29065
 967.10;  -18.400;  -35.567;  946.433; 1.74813
 967.66;  -21.900;  -29.533;  931.033; 0.79467
 968.21;  -20.767;  -36.400;  936.633; 1.60666
 968.77;  -27.400;  -28.567;  964.033; 0.11754
 969.32;  -26.333;  -32.367;  982.667; 0.59440
 969.88;  -25.333;  -22.967;  927.400;-0.24903
 970.43;  -25.033;  -35.033;  903.333; 1.06568
 970.99;  -23.167;  -27.200;  932.733; 0.42017
 971.54;  -18.567;  -25.867;  941.600; 0.75455
 972.10;  -23.800;  -29.500;  933.033; 0.59219
 972.65;  -24.833;  -31.300;  896.733; 0.69681
 973.21;  -32.367;  -30.300;  887.700;-0.22513
 973.76;  -23.667;  -33.633;  886.433; 1.08326
 974.32;  -24.233;  -32.833;  889.567; 0.93235
 974.87;  -22.933;  -27.133;  892.067; 0.45692
 975.43;  -23.400;  -28.933;  849.667; 0.62979
 975.98;  -31.800;  -28.200;  829.433;-0.41976
 976.53;  -20.900;  -33.500;  849.033; 1.42771
 977.09;  -32.500;  -28.933;  876.533;-0.39390
 977.64;  -27.733;  -29.733;  858.100; 0.22527
 978.20;  -22.833;  -28.933;  811.667; 0.72567
 978.75;  -17.867;  -30.967;  789.800; 1.59607
 979.31;  -26.333;  -29.067;  799.267; 0.32998
 979.86;  -18.567;  -26.133;  798.533; 0.91754
 980.42;  -29.367;  -24.400;  803.400;-0.59998
 980.97;  -30.367;  -26.900;  774.867;-0.43238
 981.52;  -22.800;  -33.533;  740.467; 1.38674
 982.08;  -25.867;  -34.267;  739.367; 1.08579
 982.63;  -19.867;  -29.700;  755.667; 1.25207
 983.19;  -20.600;  -30.800;  764.933; 1.28184
 983.74;  -22.600;  -33.000;  731.900; 1.35965
 984.29;  -19.733;  -30.100;  725.700; 1.37162
 984.85;  -25.367;  -28.333;  710.967; 0.40128
 985.40;  -17.900;  -27.800;  680.233; 1.39824
 985.96;  -23.567;  -31.833;  707.233; 1.11853
 986.51;  -25.233;  -31.167;  699.033; 0.81256
 987.06;  -24.933;  -29.267;  698.267; 0.59562
 987.62;  -23.433;  -27.400;  657.700; 0.57899
 988.17;  -25.200;  -34.533;  672.433; 1.32019
 988.72;  -25.733;  -35.067;  679.767; 1.30567
 989.28;  -28.133;  -29.100;  670.500; 0.13817
 989.83;  -21.167;  -27.033;  635.667; 0.88527
 990.38;  -29.633;  -33.933;  637.133; 0.64077
 990.94;  -20.267;  -26.733;  621.800; 0.99712
 991.49;  -22.100;  -36.300;  628.267; 2.13673
 992.04;  -23.633;  -28.633;  593.933; 0.80313
 992.60;  -23.000;  -31.067;  600.633; 1.27698
 993.15;  -25.600;  -28.667;  609.200; 0.48077
 993.70;  -26.133;  -33.833;  594.833; 1.22481
 994.26;  -28.467;  -27.100;  592.500;-0.22057
 994.81;  -25.467;  -25.100;  541.633;-0.06470
 995.36;  -19.433;  -31.367;  567.200; 1.99365
 995.91;  -24.167;  -29.033;  556.433; 0.83125
 996.47;  -25.633;  -26.100;  546.700; 0.08147
 997.02;  -23.933;  -27.100;  548.667; 0.54999
 997.57;  -27.800;  -35.300;  540.733; 1.30201
 998.13;  -29.200;  -28.567;  528.367;-0.11372
 998.68;  -34.300;  -32.400;  520.800;-0.34346
 999.23;  -26.733;  -28.833;  533.267; 0.37360
 999.78;  -23.833;  -34.600;  508.333; 1.98305
1000.34;  -18.867;  -24.467;  477.767; 1.11502
1000.89;  -21.767;  -23.700;  477.167; 0.38600
1001.44;  -23.800;  -31.800;  475.233; 1.57781
1001.99;  -27.467;  -32.933;  468.100; 1.09108
1002.55;  -26.267;  -25.833;  450.333;-0.09100
1003.10;  -26.833;  -35.000;  443.567; 1.70648
1003.65;  -26.633;  -25.500;  425.633;-0.25122
1004.20;  -27.233;  -23.000;  423.733;-0.94762
1004.75;  -27.633;  -25.367;  442.600;-0.48436
1005.31;  -23.800;  -32.533;  422.333; 1.91998
1005.86;  -19.800;  -28.633;  395.333; 2.08350
1006.41;  -23.767;  -26.400;  389.667; 0.63291
1006.96;  -27.900;  -30.467;  390.933; 0.60908
1007.51;  -25.467;  -31.167;  395.233; 1.33677
1008.07;  -26.267;  -31.100;  413.567; 1.08696
1008.62;  -30.533;  -27.633;  392.533;-0.69020
1009.17;  -30.333;  -31.167;  400.367; 0.19311
1009.72;  -24.200;  -34.300;  418.433; 2.23089
1010.27;  -25.467;  -35.767;  433.300; 2.19585
1010.82;  -27.400;  -27.600;  440.333; 0.04274
1011.38;  -27.500;  -33.700;  448.100; 1.28684
1011.93;  -28.800;  -28.533;  452.433;-0.05544
1012.48;  -28.067;  -26.900;  442.267;-0.24867
1013.03;  -27.267;  -28.567;  434.100; 0.28098
1013.58;  -24.667;  -29.900;  454.000; 1.08149
1014.13;  -24.167;  -33.033;  440.200; 1.87364
1014.68;  -27.133;  -25.033;  414.067;-0.47825
1015.24;  -24.133;  -29.167;  400.267; 1.17209
1015.79;  -22.067;  -31.467;  399.167; 2.18283
1016.34;  -19.400;  -38.133;  414.733; 4.13661
1016.89;  -37.567;  -29.333;  405.133;-1.89504
1017.44;  -28.200;  -28.267;  403.100; 0.01545
1017.99;  -31.533;  -31.867;  381.300; 0.08068
1018.54;  -24.967;  -27.667;  364.333; 0.68878
1019.09;  -23.533;  -30.300;  373.033; 1.67769
1019.64;  -25.433;  -25.233;  372.033;-0.05034
1020.19;  -26.600;  -34.400;  355.667; 1.99966
1020.75;  -22.400;  -33.867;  347.733; 3.00489
1021.30;  -27.700;  -40.167;  341.100; 3.26980
1021.85;  -25.167;  -34.700;  332.533; 2.59599
1022.40;  -25.967;  -32.033;  325.867; 1.69507
1022.95;  -27.367;  -23.133;  324.167;-1.21893
1023.50;  -25.667;  -26.167;  344.500; 0.13489
1024.05;  -22.500;  -29.133;  302.000; 2.00322
1024.60;  -27.367;  -29.533;  295.367; 0.66687
1025.15;  -19.933;  -28.967;  290.667; 2.82616
1025.70;  -27.900;  -34.000;  302.733; 1.81152
1026.25;  -28.200;  -30.500;  265.000; 0.77834
1026.80;  -30.833;  -29.700;  282.400;-0.36313
1027.35;  -24.033;  -30.700;  279.933; 2.14615
1027.90;  -23.067;  -28.400;  276.200; 1.75093
1028.45;  -25.367;  -29.667;  265.133; 1.45862
1029.00;  -28.800;  -38.533;  262.167; 3.23689
1029.55;  -26.367;  -26.433;  254.467; 0.02373
1030.10;  -27.633;  -28.367;  257.933; 0.25614
1030.65;  -29.167;  -33.033;  236.067; 1.43689
1031.20;  -25.833;  -29.200;  252.433; 1.19541
1031.75;  -31.667;  -23.733;  250.400;-2.89397
1032.30;  -27.867;  -34.033;  256.500; 2.12253
1032.85;  -28.767;  -26.000;  235.500;-1.05800
1033.40;  -18.700;  -39.567;  225.500; 7.87223
1033.95;  -23.267;  -32.733;  230.800; 3.59221
1034.50;  -24.733;  -33.667;  236.367; 3.30823
1035.05;  -22.233;  -36.667;  217.800; 5.67199
1035.60;  -28.267;  -34.567;  218.667; 2.48782
1036.15;  -22.367;  -33.800;  203.267; 4.82283
1036.69;  -23.100;  -24.967;  206.100; 0.80785
1037.24;  -30.367;  -31.567;  207.700; 0.50153
1037.79;  -23.100;  -27.633;  212.033; 1.89152
1038.34;  -27.067;  -25.533;  204.833;-0.66561
1038.89;  -25.867;  -32.900;  187.500; 3.19117
1039.44;  -18.300;  -35.267;  192.200; 7.45897
1039.99;  -24.433;  -29.867;  194.967; 2.41660
1040.54;  -27.900;  -34.067;  190.867; 2.74155
1041.09;  -31.133;  -27.733;  192.800;-1.54172
1041.64;  -31.133;  -32.600;  186.533; 0.66930
1042.18;  -30.433;  -36.800;  189.033; 2.81919
1042.73;  -18.333;  -28.067;  180.900; 4.65784
1043.28;  -20.433;  -31.067;  180.067; 5.03631
1043.83;  -27.467;  -33.067;  170.600; 2.74959
1044.38;  -23.067;  -33.167;  170.733; 4.95341
1044.93;  -25.500;  -25.433;  163.067;-0.03537
1045.48;  -24.467;  -30.667;  168.333; 3.11558
1046.02;  -23.167;  -36.533;  164.433; 6.65119
1046.57;  -25.200;  -30.500;  174.033; 2.59126
1047.12;  -29.033;  -26.267;  165.367;-1.44373
1047.67;  -32.100;  -31.933;  153.833;-0.08972
1048.22;  -22.800;  -29.700;  143.433; 3.98537
1048.77;  -26.233;  -30.667;  147.933; 2.48227
1049.31;  -32.267;  -36.100;  149.167; 2.06909
1049.86;  -30.567;  -30.600;  148.867; 0.01857
1050.41;  -27.533;  -29.000;  147.067; 0.83302
1050.96;  -28.067;  -33.433;  136.633; 3.15563
1051.51;  -32.833;  -28.267;  136.967;-2.76377
1052.05;  -28.867;  -28.700;  138.367;-0.09976
1052.60;  -27.400;  -28.133;  128.833; 0.46719
1053.15;  -25.600;  -37.433;  138.967; 6.70824
1053.70;  -21.867;  -33.033;  132.033; 6.76494
1054.25;  -30.567;  -31.100;  128.533; 0.33410
1054.79;  -25.300;  -35.567;  124.033; 6.43275
1055.34;  -26.133;  -36.233;  133.767; 5.94118
1055.89;  -30.200;  -23.900;  122.700;-4.29741
1056.44;  -21.767;  -30.267;  120.600; 5.63411
1056.98;  -26.033;  -36.200;  116.867; 6.64199
1057.53;  -27.700;  -35.233;  123.367; 4.74990
1058.08;  -31.000;  -30.733;  108.633;-0.19134
1058.63;  -29.733;  -31.900;  109.733; 1.52977
1059.17;  -32.200;  -35.567;  113.100; 2.26457
1059.72;  -27.767;  -34.167;  117.833; 4.21053
1060.27;  -28.233;  -31.633;  110.533; 2.39156
1060.81;  -29.900;  -34.233;  115.467; 2.89468
1061.36;  -23.333;  -37.400;  102.933;10.02375
1061.91;  -29.533;  -34.533;  109.667; 3.46741
1062.45;  -23.933;  -31.700;  103.000; 5.76590
1063.00;  -25.167;  -32.100;  107.767; 4.95710
1063.55;  -25.900;  -33.967;  104.167; 5.83977
1064.10;  -28.167;  -36.800;  108.400; 5.94582
1064.64;  -29.167;  -36.467;   97.067; 5.46680
1065.19;  -24.267;  -32.000;  100.567; 5.83354
1065.74;  -29.700;  -26.767;   93.533;-2.43835
1066.28;  -23.533;  -30.333;   94.333; 5.45455
1066.83;  -25.133;  -30.500;   89.467; 4.47346
1067.38;  -31.767;  -34.700;   94.100; 2.27743
1067.92;  -29.667;  -29.100;   81.700;-0.51143
1068.47;  -30.300;  -23.333;   95.067;-5.88401
1069.01;  -24.800;  -31.267;   82.033; 5.70756
1069.56;  -32.667;  -29.700;   97.167;-2.33841
1070.11;  -28.533;  -29.167;   81.833; 0.57057
1070.65;  -27.333;  -32.600;   88.833; 4.33708
1071.20;  -23.800;  -34.300;   80.933; 9.11195
1071.75;  -23.867;  -27.200;   95.700; 2.71223
1072.29;  -24.733;  -29.500;   79.333; 4.37979
1072.84;  -33.267;  -33.367;   80.133; 0.08810
1073.38;  -26.467;  -33.667;   77.367; 6.48454
1073.93;  -31.267;  -36.733;   82.033; 4.60286
1074.48;  -23.933;  -21.900;   84.267;-1.91523
1075.02;  -28.067;  -28.200;   78.533; 0.12492
1075.57;  -20.533;  -33.867;   77.567;11.96530
1076.11;  -31.733;  -23.467;   86.900;-7.49018
1076.66;  -26.233;  -36.933;   75.300; 9.53371
1077.20;  -25.933;  -30.933;   80.767; 4.47627
1077.75;  -27.500;  -30.400;   70.533; 2.87318
1078.29;  -25.067;  -31.567;   77.700; 5.94875
1078.84;  -30.767;  -29.000;   66.233;-1.85509
1079.39;  -32.633;  -28.233;   72.133;-4.38393
1079.93;  -33.167;  -30.867;   67.900;-2.32872
1080.48;  -24.000;  -38.000;   65.300;13.55276
1081.02;  -23.600;  -33.067;   67.467; 9.41644
1081.57;  -27.967;  -33.833;   67.300; 5.80092
1082.11;  -27.600;  -35.667;   66.767; 7.87504
1082.66;  -29.967;  -33.300;   59.833; 3.57910
1083.20;  -29.433;  -38.767;   65.900; 8.91720
1083.75;  -26.567;  -34.933;   61.033; 8.71831
1084.29;  -31.033;  -31.533;   55.167; 0.57670
1084.84;  -29.100;  -33.300;   61.833; 4.41486
1085.38;  -25.833;  -33.833;   56.933; 8.81381
1085.93;  -30.433;  -35.533;   65.867; 5.02959
1086.47;  -23.967;  -32.767;   61.933; 9.29250
1087.02;  -30.900;  -30.433;   59.000;-0.52180
1087.56;  -24.167;  -34.433;   51.400;11.96117
1088.10;  -30.433;  -33.067;   64.400; 2.70178
1088.65;  -26.800;  -32.833;   54.233; 6.92955
1089.19;  -31.900;  -33.967;   55.233; 2.31689
1089.74;  -26.933;  -34.033;   61.100; 7.46321
1090.28;  -28.267;  -37.800;   50.433;10.80468
1090.83;  -25.200;  -27.033;   48.667; 2.42184
1091.37;  -27.167;  -35.733;   51.233; 9.85052
1091.92;  -27.600;  -30.133;   53.267; 3.03757
1092.46;  -33.467;  -30.767;   44.300;-3.59680
1093.00;  -27.133;  -29.733;   49.667; 3.27456
1093.55;  -20.833;  -34.400;   52.367;15.63581
1094.09;  -28.567;  -32.300;   48.067; 4.64537
1094.64;  -29.933;  -31.067;   49.067; 1.41431
1095.18;  -25.433;  -34.300;   45.667;11.08795
1095.72;  -26.733;  -32.300;   45.233; 7.17971
1096.27;  -32.033;  -34.200;   42.867; 2.81142
1096.81;  -26.033;  -36.167;   43.233;12.76239
1097.35;  -30.233;  -36.667;   38.500; 8.55876
1097.90;  -30.233;  -35.367;   47.933; 6.16246
1098.44;  -27.300;  -30.967;   37.500; 5.35540
1098.99;  -28.567;  -35.767;   43.967; 9.03010
1099.53;  -23.900;  -29.867;   37.200; 8.89662
1100.07;  -27.433;  -31.400;   41.433; 5.44622

